EOG,1076337000,10.7825,10.9525,10.78,10.79,4.084e+06
EOG,1076423400,10.8525,10.9625,10.75,10.9425,6.2012e+06
EOG,1076509800,10.88,10.8875,10.7525,10.81,6.4752e+06
EOG,1076596200,10.82,11.0675,10.82,11.0275,5.8936e+06
EOG,1076682600,11.0225,11.0225,10.88,10.94,3.1948e+06
EOG,1077028200,10.955,11.04,10.955,10.9925,2.3824e+06
EOG,1077114600,10.955,11.0125,10.85,10.88,2.5732e+06
EOG,1077201000,10.885,10.9675,10.78,10.8,2.178e+06
EOG,1077287400,10.8025,10.82,10.6125,10.75,3.6032e+06
EOG,1077546600,10.7875,10.8325,10.695,10.76,1.8564e+06
EOG,1077633000,10.75,10.8625,10.705,10.85,3.2184e+06
EOG,1077719400,10.8125,10.9675,10.77,10.925,2.4668e+06
EOG,1077805800,10.93,11.06,10.8875,11.0025,4.2352e+06
EOG,1077892200,11,11.185,10.9825,11.1225,3.1568e+06
EOG,1078151400,11.1875,11.325,11.12,11.3125,4.144e+06
EOG,1078237800,11.2625,11.47,11.2625,11.3575,4.4248e+06
EOG,1078324200,11.275,11.46,11.15,11.3925,5.0456e+06
EOG,1078410600,11.375,11.39,11.09,11.1975,3.9096e+06
EOG,1078497000,11.25,11.4525,11.2375,11.38,5.992e+06
EOG,1078756200,11.4625,11.5725,11.3825,11.435,3.0784e+06
EOG,1078842600,11.325,11.4125,11.2225,11.295,2.828e+06
EOG,1078929000,11.385,11.385,11.1125,11.1275,2.916e+06
EOG,1079015400,11.065,11.1125,10.9225,10.965,3.3408e+06
EOG,1079101800,10.9425,11.17,10.94,11.17,1.8048e+06
EOG,1079361000,11.19,11.3225,11.19,11.2775,2.6008e+06
EOG,1079447400,11.34,11.3475,11.2025,11.2625,3.356e+06
EOG,1079533800,11.295,11.52,11.2775,11.37,3.086e+06
EOG,1079620200,11.37,11.425,11.2425,11.35,4.9732e+06
EOG,1079706600,11.325,11.3725,11.165,11.1825,3.1244e+06
EOG,1079965800,11.1825,11.315,11.085,11.235,2.8472e+06
EOG,1080052200,11.2675,11.2875,11.1,11.1875,3.418e+06
EOG,1080138600,11.2325,11.2325,10.8275,10.8375,2.744e+06
EOG,1080225000,10.9,10.9475,10.82,10.865,4.1804e+06
EOG,1080311400,10.85,11.0925,10.85,10.995,3.0888e+06
EOG,1080570600,11.015,11.18,11.015,11.1375,3.8404e+06
EOG,1080657000,11.1525,11.4225,11.1425,11.3125,4.7012e+06
EOG,1080743400,11.36,11.4725,11.275,11.4725,3.2888e+06
EOG,1080829800,11.4875,11.57,11.33,11.4,5.2688e+06
EOG,1080916200,11.5125,11.5475,11.41,11.47,3.3032e+06
EOG,1081171800,11.5,11.53,11.4025,11.465,5.25e+06
EOG,1081258200,11.465,11.535,11.4275,11.5025,2.2144e+06
EOG,1081344600,11.4775,11.6,11.435,11.5025,3.7808e+06
EOG,1081431000,11.6,11.7725,11.565,11.7675,4.2008e+06
EOG,1081776600,11.7675,12.1125,11.7675,11.97,3.7736e+06
EOG,1081863000,11.97,12.0425,11.8375,11.8475,3.3228e+06
EOG,1081949400,11.77,11.8975,11.67,11.88,4.376e+06
EOG,1082035800,12,12.2125,12,12.13,3.6492e+06
EOG,1082122200,12.2875,12.3225,12.2075,12.285,4.9616e+06
EOG,1082381400,12.3575,12.5225,12.345,12.5225,6.2428e+06
EOG,1082467800,12.39,12.5,12.255,12.255,3.4504e+06
EOG,1082554200,12.1875,12.25,12.04,12.06,4.1236e+06
EOG,1082640600,12.075,12.26,12.01,12.24,4.0132e+06
EOG,1082727000,12.225,12.2375,12.0575,12.17,2.204e+06
EOG,1082986200,12.22,12.3575,12.22,12.2975,2.726e+06
EOG,1083072600,12.3875,12.6975,12.3525,12.605,4.628e+06
EOG,1083159000,12.6075,12.64,12.48,12.5275,4.1968e+06
EOG,1083245400,12.3825,12.445,12.1675,12.2375,5.1376e+06
EOG,1083331800,12.2625,12.45,12.215,12.3125,3.3172e+06
EOG,1083591000,12.3625,13.0375,12.2775,13.0375,9.7156e+06
EOG,1083677400,13.0825,13.6875,13.0825,13.505,1.50296e+07
EOG,1083763800,13.475,13.5525,13.3225,13.5,8.0144e+06
EOG,1083850200,13.5025,13.6025,13.295,13.545,6.204e+06
EOG,1083936600,13.5475,13.67,13.4525,13.4725,6.4132e+06
EOG,1084195800,13.2775,13.28,12.875,13.05,8.418e+06
EOG,1084282200,13.1125,13.2475,13.0375,13.1325,5.682e+06
EOG,1084368600,13.1325,13.36,13.04,13.25,4.9656e+06
EOG,1084455000,13.225,13.3375,13.145,13.28,3.906e+06
EOG,1084541400,13.3625,13.65,13.35,13.5425,4.8024e+06
EOG,1084800600,13.5425,13.82,13.5425,13.6625,4.2976e+06
EOG,1084887000,13.6625,13.6875,13.375,13.45,6.008e+06
EOG,1084973400,13.465,13.5225,13.225,13.23,5.216e+06
EOG,1085059800,13.25,13.365,13.1075,13.1125,5.0736e+06
EOG,1085146200,13.275,13.28,13.01,13.1675,4.8292e+06
EOG,1085405400,13.2125,13.4975,13.175,13.455,3.1308e+06
EOG,1085491800,13.38,13.6525,13.3725,13.6375,3.3872e+06
EOG,1085578200,13.7,13.76,13.51,13.5225,3.848e+06
EOG,1085664600,13.5025,13.5025,13.245,13.28,3.9232e+06
EOG,1085751000,13.335,13.565,13.3225,13.3575,3.1568e+06
EOG,1086096600,13.5,13.745,13.485,13.6525,2.692e+06
EOG,1086183000,13.75,13.7975,13.4375,13.4575,4.7148e+06
EOG,1086269400,13.4575,13.585,13.19,13.2275,4.5884e+06
EOG,1086355800,13.2025,13.2025,12.9575,13.0275,4.058e+06
EOG,1086615000,13.0425,13.36,12.9575,13.355,4.3064e+06
EOG,1086701400,13.345,13.495,13.2075,13.255,2.7172e+06
EOG,1086787800,13.205,13.2325,13.01,13.1475,2.7788e+06
EOG,1086874200,13.4,13.6675,13.3975,13.6675,5.5536e+06
EOG,1087219800,13.625,13.805,13.48,13.65,3.97e+06
EOG,1087306200,13.79,14.145,13.7725,14.13,7.3572e+06
EOG,1087392600,14.25,14.6,14.23,14.4825,6.512e+06
EOG,1087479000,14.5325,14.63,14.38,14.5675,4.1656e+06
EOG,1087565400,14.5075,14.595,14.46,14.54,3.6676e+06
EOG,1087824600,14.5625,14.595,14.44,14.5875,2.3468e+06
EOG,1087911000,14.5875,14.775,14.5375,14.7375,4.578e+06
EOG,1087997400,14.875,15.2975,14.8225,15.2725,7.5904e+06
EOG,1088083800,15.315,15.45,15.15,15.2225,6.9632e+06
EOG,1088170200,15.5275,15.9225,15.0225,15.0225,7.1008e+06
EOG,1088429400,15.0875,15.0875,14.6525,14.7325,5.5332e+06
EOG,1088515800,14.6625,14.9,14.6625,14.8325,4.3772e+06
EOG,1088602200,14.8975,14.995,14.8125,14.9275,4.1432e+06
EOG,1088688600,14.965,15.1675,14.93,15.075,4.6316e+06
EOG,1088775000,15.1375,15.3425,15.075,15.2025,3.1216e+06
EOG,1089120600,15.3375,15.605,15.3375,15.4125,5.602e+06
EOG,1089207000,15.4075,15.5875,15.3025,15.575,3.8968e+06
EOG,1089293400,15.6025,15.7025,15.31,15.535,3.8656e+06
EOG,1089379800,15.535,15.7275,15.4875,15.64,2.712e+06
EOG,1089639000,15.6375,15.64,15.455,15.5775,4.738e+06
EOG,1089725400,15.5775,15.5775,15.375,15.4275,5.2188e+06
EOG,1089811800,15.4125,15.6675,15.4,15.6375,3.4656e+06
EOG,1089898200,15.625,15.8,15.485,15.775,4.236e+06
EOG,1089984600,15.8625,15.8975,15.605,15.83,5.624e+06
EOG,1090243800,15.82,15.8725,15.675,15.81,2.5624e+06
EOG,1090330200,15.81,15.82,15.6275,15.7,3.5048e+06
EOG,1090416600,15.7225,15.7875,15.2375,15.28,4.5016e+06
EOG,1090503000,15.3025,15.4825,15.1925,15.355,4.58e+06
EOG,1090589400,15.25,15.34,15.1,15.2025,2.5916e+06
EOG,1090848600,15.1925,15.3025,14.8525,14.9675,4.2748e+06
EOG,1090935000,14.905,15.3525,14.825,15.3125,4.1244e+06
EOG,1091021400,15.315,15.6525,15.275,15.65,6.0148e+06
EOG,1091107800,15.6525,15.7875,15.45,15.76,4.836e+06
EOG,1091194200,15.8025,15.95,15.775,15.8875,3.242e+06
EOG,1091453400,15.8875,15.98,15.55,15.885,3.1616e+06
EOG,1091539800,15.9375,16.525,15.9325,16.2225,8.7004e+06
EOG,1091626200,16.2225,16.2225,15.2975,15.3525,8.628e+06
EOG,1091712600,15.3525,15.4375,14.9325,15.0625,7.3312e+06
EOG,1091799000,15.0625,15.075,14.545,14.6,5.1956e+06
EOG,1092058200,14.625,15.05,14.625,14.8,5.296e+06
EOG,1092144600,14.875,14.985,14.73,14.885,4.6156e+06
EOG,1092231000,14.81,14.8625,14.4125,14.5025,5.3264e+06
EOG,1092317400,14.555,14.7325,14.2625,14.265,4.8496e+06
EOG,1092403800,14.3125,14.495,14.3075,14.375,5.9772e+06
EOG,1092663000,14.3575,14.5275,14.3075,14.3725,3.784e+06
EOG,1092749400,13.875,14.02,13.8475,13.85,7.9524e+06
EOG,1092835800,13.9125,14.09,13.9125,14.0325,4.8176e+06
EOG,1092922200,14.095,14.2625,13.975,14.225,4.8872e+06
EOG,1093008600,14.35,14.55,14.28,14.3,4.8384e+06
EOG,1093267800,14.3,14.4075,14.0375,14.1025,3.412e+06
EOG,1093354200,14.1025,14.1025,13.85,14.05,5.5596e+06
EOG,1093440600,14.1,14.2825,13.9475,14.02,5.1004e+06
EOG,1093527000,14,14.2725,13.8,14.25,3.9252e+06
EOG,1093613400,14.2575,14.3975,14.2475,14.3625,2.5064e+06
EOG,1093872600,14.2575,14.4425,14.125,14.2475,2.8332e+06
EOG,1093959000,14.2475,14.47,14.225,14.4425,1.9504e+06
EOG,1094045400,14.475,14.765,14.4375,14.715,4.3652e+06
EOG,1094131800,14.7625,14.865,14.6025,14.73,3.106e+06
EOG,1094218200,14.73,14.765,14.625,14.6825,2.0772e+06
EOG,1094563800,14.685,14.745,14.4425,14.745,3.0572e+06
EOG,1094650200,14.855,14.9,14.71,14.725,5.2844e+06
EOG,1094736600,14.75,14.94,14.6925,14.925,5.0728e+06
EOG,1094823000,14.9225,14.97,14.7675,14.91,2.7964e+06
EOG,1095082200,15.15,15.3675,15.11,15.2875,6.7252e+06
EOG,1095168600,15.3625,15.8425,15.3575,15.79,8.6372e+06
EOG,1095255000,15.775,15.9175,15.67,15.67,5.0404e+06
EOG,1095341400,15.67,15.8275,15.5625,15.7725,2.8532e+06
EOG,1095427800,15.8475,15.97,15.8475,15.895,3.3172e+06
EOG,1095687000,15.945,16.02,15.8325,15.8675,3.376e+06
EOG,1095773400,15.8975,16.4075,15.8425,16.3525,3.8824e+06
EOG,1095859800,16.3525,16.3525,16.1,16.185,3.5608e+06
EOG,1095946200,16.1225,16.1225,15.9175,15.9275,4.4668e+06
EOG,1096032600,16.1,16.29,16.065,16.2125,4.4112e+06
EOG,1096291800,16.275,16.355,15.95,16.1275,2.8404e+06
EOG,1096378200,16.3,16.53,16.2725,16.465,3.5184e+06
EOG,1096464600,16.465,16.7175,16.1625,16.2425,5.0108e+06
EOG,1096551000,16.2425,16.565,16.2425,16.4625,6.7304e+06
EOG,1096637400,16.4625,16.8625,16.365,16.8,5.468e+06
EOG,1096896600,16.8025,16.9725,16.6925,16.88,4.1448e+06
EOG,1096983000,17.05,17.42,17.05,17.3125,4.3132e+06
EOG,1097069400,17.4,17.6375,17.4,17.5675,4.1212e+06
EOG,1097155800,17.875,18.12,17.3725,17.405,6.42e+06
EOG,1097242200,17.4175,17.59,17.23,17.425,3.0196e+06
EOG,1097501400,17.4275,17.4525,17.195,17.3125,2.4972e+06
EOG,1097587800,17.345,17.465,17.035,17.045,3.2688e+06
EOG,1097674200,16.7625,16.765,16.22,16.37,8.1296e+06
EOG,1097760600,16.37,16.8275,16.37,16.7,4.9808e+06
EOG,1097847000,16.725,16.825,16.5425,16.6475,2.6636e+06
EOG,1098106200,16.675,16.7625,16.41,16.475,3.2764e+06
EOG,1098192600,16.45,16.605,16.38,16.5,2.654e+06
EOG,1098279000,16.5625,17.1,16.5625,17.0675,5.4832e+06
EOG,1098365400,17.2125,17.2775,16.9475,17.2175,4.5352e+06
EOG,1098451800,17.3125,17.3875,17.1575,17.19,2.48e+06
EOG,1098711000,17.225,17.355,17.09,17.22,3.4192e+06
EOG,1098797400,17.2225,17.4675,17.065,17.43,3.3632e+06
EOG,1098883800,17.5125,17.8125,16.625,16.9675,7.46e+06
EOG,1098970200,17.1,17.1,16.2575,16.2575,9.452e+06
EOG,1099056600,16.2825,16.65,16.235,16.64,5.2564e+06
EOG,1099319400,16.775,16.945,16.2775,16.415,5.1056e+06
EOG,1099405800,16.465,16.5475,16.0375,16.105,4.0644e+06
EOG,1099492200,16.425,16.52,16.1925,16.45,6.0228e+06
EOG,1099578600,16.625,16.9,16.5225,16.775,6.9516e+06
EOG,1099665000,16.775,17.0925,16.7725,16.8975,3.782e+06
EOG,1099924200,16.845,16.9,16.2625,16.305,5.7476e+06
EOG,1100010600,16.565,16.565,16.0725,16.3125,5.4956e+06
EOG,1100097000,16.37,16.5425,16.1625,16.54,6.3576e+06
EOG,1100183400,16.535,16.5625,16.3425,16.3825,5.8052e+06
EOG,1100269800,16.3825,17.125,16.32,17.0925,5.6984e+06
EOG,1100529000,17.095,17.0975,16.565,16.875,7.0424e+06
EOG,1100615400,16.905,17.0125,16.635,16.7525,4.5032e+06
EOG,1100701800,16.9125,17.0575,16.79,17,4.9772e+06
EOG,1100788200,17.025,17.35,16.945,17.3225,6.4952e+06
EOG,1100874600,17.385,18.065,17.365,17.835,9.288e+06
EOG,1101133800,17.9925,18.4175,17.97,18.38,7.0436e+06
EOG,1101220200,18.38,18.68,18.3375,18.5125,3.9668e+06
EOG,1101306600,18.5125,18.92,18.3,18.8675,5.3024e+06
EOG,1101479400,18.87,19.125,18.815,18.9575,1.7592e+06
EOG,1101738600,19.0125,19.045,18.6325,18.825,5.2228e+06
EOG,1101825000,18.6,18.7725,18.5075,18.7675,5.5216e+06
EOG,1101911400,18.7675,18.8375,18.1875,18.275,6.9404e+06
EOG,1101997800,18.275,18.275,17.35,17.62,8.5684e+06
EOG,1102084200,17.4625,18.07,17.4625,18.04,5.9832e+06
EOG,1102343400,18.125,18.1475,17.7825,17.915,2.9696e+06
EOG,1102429800,17.8125,17.875,17.395,17.455,4.8516e+06
EOG,1102516200,17.395,17.74,17.0925,17.655,4.4044e+06
EOG,1102602600,17.6925,17.9,17.555,17.8275,3.7116e+06
EOG,1102689000,18.1475,18.1475,17.355,17.425,3.918e+06
EOG,1102948200,17.4875,17.89,17.475,17.89,4.4748e+06
EOG,1103034600,17.9525,18.07,17.805,18.0125,3.7188e+06
EOG,1103121000,18.0625,18.3875,17.88,18.315,4.1632e+06
EOG,1103207400,18.275,18.275,17.9125,17.9625,3.5988e+06
EOG,1103293800,18,18.3075,17.99,18.2975,4.2552e+06
EOG,1103553000,18.2875,18.4375,18.25,18.3625,2.8436e+06
EOG,1103639400,18.365,18.5475,18.3375,18.47,2.6708e+06
EOG,1103725800,18.4875,18.525,17.8875,18,6.1412e+06
EOG,1103812200,18.0025,18.25,17.985,18.1,3.3476e+06
EOG,1104157800,18.1,18.1,17.5775,17.6,2.9392e+06
EOG,1104244200,17.625,17.8425,17.625,17.825,3.1648e+06
EOG,1104330600,17.875,17.93,17.705,17.8175,4.1316e+06
EOG,1104417000,17.7625,17.875,17.65,17.725,2.9004e+06
EOG,1104503400,17.775,17.915,17.73,17.84,2.4456e+06
EOG,1104762600,17.84,17.84,16.5375,16.6375,1.20244e+07
EOG,1104849000,16.6775,16.85,16.325,16.375,1.16832e+07
EOG,1104935400,16.375,16.475,16.025,16.2375,7.8552e+06
EOG,1105021800,16.2375,16.75,16.0475,16.4775,8.7148e+06
EOG,1105108200,16.4875,16.4875,16.1475,16.37,4.0444e+06
EOG,1105367400,16.55,16.8625,16.5325,16.6275,4.5256e+06
EOG,1105453800,16.7125,16.825,16.515,16.7375,4.5116e+06
EOG,1105540200,16.7575,16.995,16.525,16.95,6.3632e+06
EOG,1105626600,17.0375,17.3275,16.95,17.135,5.0788e+06
EOG,1105713000,17.1375,17.5275,17.07,17.4875,3.9644e+06
EOG,1106058600,17.7,18,17.7,17.905,7.3492e+06
EOG,1106145000,17.9025,18.055,17.7125,17.725,3.4136e+06
EOG,1106231400,17.625,17.905,17.405,17.78,5.6072e+06
EOG,1106317800,18.1125,18.12,17.8525,17.9125,5.1412e+06
EOG,1106577000,18.0375,18.1425,18.02,18.0325,5.1112e+06
EOG,1106663400,18.0975,18.2225,17.87,17.9775,3.9148e+06
EOG,1106749800,18.0875,18.27,17.95,18.235,4.7668e+06
EOG,1106836200,18.2375,18.5975,18.175,18.3925,3.816e+06
EOG,1106922600,18.395,18.52,18.265,18.5,5.884e+06
EOG,1107181800,18.5,18.7,18.3175,18.5625,6.7248e+06
EOG,1107268200,18.6875,19.025,18.6825,18.9875,5.6592e+06
EOG,1107354600,19,19.155,18.9225,19.155,4.852e+06
EOG,1107441000,19.625,19.675,18.98,19.32,8.9876e+06
EOG,1107527400,19.35,19.435,19.04,19.1625,6.3244e+06
EOG,1107786600,19.1625,19.25,18.9475,19.24,5.828e+06
EOG,1107873000,19.2375,19.545,19.05,19.4225,5.1284e+06
EOG,1107959400,19.3875,19.7875,19.1675,19.56,5.8924e+06
EOG,1108045800,19.7375,20.0575,19.6775,20,4.6976e+06
EOG,1108132200,20,20.4025,19.8775,20.3125,6.3472e+06
EOG,1108391400,20.325,20.5625,20.325,20.5375,7.2188e+06
EOG,1108477800,20.5375,20.7225,20.365,20.5425,4.6792e+06
EOG,1108564200,20.5625,21.325,20.5625,21.2475,8.0032e+06
EOG,1108650600,21.3625,21.4125,20.8175,20.89,8.6568e+06
EOG,1108737000,20.9625,21.5275,20.945,21.3925,8.0292e+06
EOG,1109082600,21.555,22.0825,21.555,21.65,9.5656e+06
EOG,1109169000,21.575,21.7875,21.545,21.61,7.0808e+06
EOG,1109255400,21.725,22.0825,21.6175,22.0825,6.45e+06
EOG,1109341800,22.085,22.9375,22.085,22.875,7.6376e+06
EOG,1109601000,22.925,23.325,22.305,22.78,1.07492e+07
EOG,1109687400,22.6,22.7,21.8675,21.9875,8.6552e+06
EOG,1109773800,21.985,22.605,21.89,22.49,4.7726e+06
EOG,1109860200,22.85,23.3,22.68,22.94,5.6516e+06
EOG,1109946600,22.94,23.66,22.78,23.395,3.8012e+06
EOG,1110205800,23.25,23.325,22.72,23.095,3.6338e+06
EOG,1110292200,23,23.58,23,23.53,4.038e+06
EOG,1110378600,23.7,24.205,23.26,23.31,8.835e+06
EOG,1110465000,23,23.005,22.035,22.43,7.8072e+06
EOG,1110551400,22.43,22.9,22.36,22.69,4.4396e+06
EOG,1110810600,22.775,22.925,22.23,22.885,3.7616e+06
EOG,1110897000,22.825,23.185,22.43,22.44,3.427e+06
EOG,1110983400,22.44,23.04,22.085,22.65,5.2418e+06
EOG,1111069800,22.75,23.29,22.74,23.165,6.9636e+06
EOG,1111156200,24,24.215,23.75,24.105,9.1622e+06
EOG,1111415400,24.105,24.11,23.485,23.83,3.9218e+06
EOG,1111501800,23.83,24.105,23.245,23.3,3.8006e+06
EOG,1111588200,23.135,23.135,22.225,22.515,6.3572e+06
EOG,1111674600,22.585,23.255,22.455,22.745,4.1594e+06
EOG,1112020200,22.75,23.02,22.465,22.64,3.2142e+06
EOG,1112106600,22.64,23.115,22.35,22.375,4.5374e+06
EOG,1112193000,22.45,23.19,22.05,23.185,7.2248e+06
EOG,1112279400,23.875,24.42,23.825,24.37,6.2186e+06
EOG,1112365800,24.625,25.16,24.55,25.13,6.1168e+06
EOG,1112621400,25.335,26.25,24.68,25.035,8.144e+06
EOG,1112707800,25.035,25.475,24.725,24.985,6.0496e+06
EOG,1112794200,24.95,25.205,24.455,25.015,6.983e+06
EOG,1112880600,25.45,25.48,24.225,24.56,5.3056e+06
EOG,1112967000,24.45,24.51,23.58,23.645,6.1198e+06
EOG,1113226200,23.645,24.31,23.425,24.28,3.9032e+06
EOG,1113312600,24.28,24.39,23.585,23.695,4.0816e+06
EOG,1113399000,23.675,23.7,22.8,22.905,4.8712e+06
EOG,1113485400,23.15,23.675,22.745,22.85,6.2568e+06
EOG,1113571800,23.05,23.075,21.745,21.81,7.069e+06
EOG,1113831000,21.85,22.41,21.4,22.39,4.945e+06
EOG,1113917400,22.65,23.44,22.62,23.3,5.369e+06
EOG,1114003800,23.31,23.62,22.725,22.775,3.5234e+06
EOG,1114090200,22.875,23.57,22.795,23.535,3.1876e+06
EOG,1114176600,23.58,23.955,23.315,23.675,3.4976e+06
EOG,1114435800,24.2,24.685,23.975,24.155,3.5424e+06
EOG,1114522200,24.155,24.2,23.775,23.875,3.8228e+06
EOG,1114608600,23.95,24.4,23.02,23.89,8.0476e+06
EOG,1114695000,23.69,23.975,23.395,23.645,6.0882e+06
EOG,1114781400,24.05,24.2,23.485,23.775,4.9754e+06
EOG,1115040600,23.475,24.72,23.3,24.705,5.3594e+06
EOG,1115127000,24.425,24.55,24.1,24.26,5.3002e+06
EOG,1115213400,24.385,24.5,23.725,24.395,8.0894e+06
EOG,1115299800,24.7,25.05,24.535,24.97,5.5996e+06
EOG,1115386200,25.12,25.2,24.7,24.86,5.2172e+06
EOG,1115645400,25.01,25.095,24.785,24.98,4.281e+06
EOG,1115731800,24.895,25.06,24.415,24.515,3.057e+06
EOG,1115818200,24.25,24.65,24.15,24.47,4.9636e+06
EOG,1115904600,24.3,24.335,22.5,22.74,1.0188e+07
EOG,1115991000,22.925,22.925,21.2,22.495,8.787e+06
EOG,1116250200,22.365,22.445,21.755,22.415,4.8694e+06
EOG,1116336600,22.275,23.07,22.275,23.055,3.652e+06
EOG,1116423000,23.19,23.61,22.905,23.215,4.5206e+06
EOG,1116509400,23.3,23.63,23.175,23.6,3.9124e+06
EOG,1116595800,23.775,24,23.535,23.93,5.763e+06
EOG,1116855000,24.475,24.735,24.225,24.625,4.2214e+06
EOG,1116941400,24.63,24.935,24.43,24.91,2.8624e+06
EOG,1117027800,24.895,25.25,24.655,25,3.6626e+06
EOG,1117114200,25,25.31,24.885,25.27,2.9278e+06
EOG,1117200600,25.36,25.5,25.11,25.45,2.0582e+06
EOG,1117546200,24.85,25.09,24.71,24.945,4.525e+06
EOG,1117632600,25.275,25.975,24.565,25.795,3.8846e+06
EOG,1117719000,25.9,26,25.475,25.785,3.7124e+06
EOG,1117805400,25.925,26.135,25.575,25.835,2.1098e+06
EOG,1118064600,26.095,26.23,25.805,26.055,2.0558e+06
EOG,1118151000,26.125,26.245,25.37,25.46,3.6534e+06
EOG,1118237400,25.46,26.565,25.44,26.23,5.8316e+06
EOG,1118323800,26.35,27.08,26.265,27.075,4.2874e+06
EOG,1118410200,27.125,27.215,26.835,27.085,2.7814e+06
EOG,1118669400,26.975,27.4,26.805,27.37,2.6136e+06
EOG,1118755800,27.37,27.735,27.215,27.705,3.1696e+06
EOG,1118842200,28,28.15,27.71,27.795,3.3388e+06
EOG,1118928600,28.025,28.175,27.815,28.02,2.6952e+06
EOG,1119015000,28.15,28.225,27.59,28.075,5.8164e+06
EOG,1119274200,28.575,28.865,28.33,28.665,4.4392e+06
EOG,1119360600,28.5,28.72,28.15,28.25,4.8992e+06
EOG,1119447000,28.5,28.835,28.285,28.425,7.0964e+06
EOG,1119533400,28.5,28.96,28.25,28.36,4.4138e+06
EOG,1119619800,28.45,28.675,27.8,27.95,4.817e+06
EOG,1119879000,28.005,28.65,28.005,28.37,5.0712e+06
EOG,1119965400,28.345,28.36,27.81,28,4.123e+06
EOG,1120051800,27.95,28.325,27.9,28.235,3.5822e+06
EOG,1120138200,27.975,28.97,27.955,28.4,4.697e+06
EOG,1120224600,28.84,29.36,28.76,29.24,4.0378e+06
EOG,1120570200,29.5,30.025,29.4,29.975,4.4934e+06
EOG,1120656600,30.035,30.35,29.43,29.505,3.5702e+06
EOG,1120743000,29.35,30.185,29.15,30.175,4.5004e+06
EOG,1120829400,30.3,30.695,29.705,30.23,4.3454e+06
EOG,1121088600,29.9,30.345,29.745,30.215,3.566e+06
EOG,1121175000,30.375,30.875,30.25,30.675,4.4074e+06
EOG,1121261400,30.875,30.875,30.1,30.38,2.5782e+06
EOG,1121347800,30.55,30.7,29.39,29.565,4.5988e+06
EOG,1121434200,29.61,29.95,29.07,29.34,4.797e+06
EOG,1121693400,29.295,29.295,28.75,29.065,2.9914e+06
EOG,1121779800,28.59,30.075,28.59,30.075,2.7102e+06
EOG,1121866200,30.25,30.495,29.615,30.34,3.3212e+06
EOG,1121952600,30.325,30.56,29.72,30.115,3.5412e+06
EOG,1122039000,30.375,31.765,30.12,31.765,4.2578e+06
EOG,1122298200,31.625,32.475,31.355,32.15,4.5142e+06
EOG,1122384600,32.485,32.695,32.005,32.675,4.3144e+06
EOG,1122471000,32.65,32.94,31.835,31.895,6.249e+06
EOG,1122557400,31.105,31.855,29.51,30.425,1.04028e+07
EOG,1122643800,30.525,30.7,30.36,30.55,3.8102e+06
EOG,1122903000,31.525,31.525,30.575,30.61,3.1402e+06
EOG,1122989400,30.825,31.345,30.61,31.325,3.8886e+06
EOG,1123075800,31.36,31.48,30.79,31,2.7064e+06
EOG,1123162200,31.075,31.68,30.91,31.195,3.7204e+06
EOG,1123248600,31.43,31.48,30.59,30.975,2.7244e+06
EOG,1123507800,31.23,31.67,30.955,31.05,3.5722e+06
EOG,1123594200,31.12,31.3,30.68,30.875,2.6264e+06
EOG,1123680600,31.35,31.86,31.125,31.575,4.4572e+06
EOG,1123767000,31.575,32.06,31.565,32.05,3.3416e+06
EOG,1123853400,32.03,32.22,31.735,31.845,2.937e+06
EOG,1124112600,32.3,32.3,31.33,31.49,2.6824e+06
EOG,1124199000,31.25,31.59,30.55,30.595,3.4298e+06
EOG,1124285400,30.595,31.2,29.585,29.875,5.6586e+06
EOG,1124371800,29.74,30.31,29.375,30.025,4.373e+06
EOG,1124458200,30.45,30.675,30.42,30.54,2.866e+06
EOG,1124717400,30.75,30.99,30.4,30.705,2.7122e+06
EOG,1124803800,30.93,31.025,29.925,30.5,3.6776e+06
EOG,1124890200,30.5,31.19,30.35,30.845,3.1292e+06
EOG,1124976600,30.51,30.99,30.51,30.83,3.1948e+06
EOG,1125063000,30.77,31,30.125,30.23,3.0452e+06
EOG,1125322200,31.375,31.51,30.385,30.87,5.7458e+06
EOG,1125408600,31.125,31.715,31.125,31.6,5.882e+06
EOG,1125495000,32.05,32.605,31.53,31.915,1.18236e+07
EOG,1125581400,32.55,33.29,32.165,33.235,7.2702e+06
EOG,1125667800,33.045,33.16,32.42,32.625,5.8406e+06
EOG,1126013400,33.145,33.175,32.49,33.09,3.2252e+06
EOG,1126099800,33.25,33.65,32.825,33.195,4.3002e+06
EOG,1126186200,33.35,34.075,33.225,33.745,4.1252e+06
EOG,1126272600,34.085,35.39,33.955,35.255,5.6396e+06
EOG,1126531800,35.25,35.27,34.52,34.99,7.4214e+06
EOG,1126618200,34.99,35.495,34.155,34.225,9.3364e+06
EOG,1126704600,34.5,34.98,34.13,34.6,5.4584e+06
EOG,1126791000,34.85,35.075,34.325,35.05,4.8842e+06
EOG,1126877400,35.12,35.53,34.75,35.33,4.5896e+06
EOG,1127136600,36.55,37.28,36.265,36.35,6.083e+06
EOG,1127223000,36.305,36.48,35.5,35.855,4.6844e+06
EOG,1127309400,36.475,37.12,36.18,37.02,5.4912e+06
EOG,1127395800,37.27,37.91,35.67,36.945,6.0142e+06
EOG,1127482200,36.545,36.85,36.01,36.22,4.111e+06
EOG,1127741400,35.755,37.4,35.75,37.265,4.16e+06
EOG,1127827800,37.22,37.5,36.7,37.43,3.4034e+06
EOG,1127914200,37.555,38.05,36.75,37.97,5.9372e+06
EOG,1128000600,38.15,38.5,37.725,37.905,7.2562e+06
EOG,1128087000,37.875,38,37.345,37.45,4.8324e+06
EOG,1128346200,38.025,39.185,37.99,39.045,8.0932e+06
EOG,1128432600,38.995,38.995,37.375,37.49,5.8518e+06
EOG,1128519000,37.8,37.89,35.625,35.71,6.6164e+06
EOG,1128605400,34.01,34.7,32.975,33.7,1.1419e+07
EOG,1128691800,34.25,34.595,33.7,34.535,6.2054e+06
EOG,1128951000,35.125,35.15,33.415,33.89,4.9736e+06
EOG,1129037400,34.4,35.4,34.4,35.18,4.762e+06
EOG,1129123800,35.18,35.3,33.87,34.145,5.7912e+06
EOG,1129210200,33.75,33.75,31.805,32.95,7.384e+06
EOG,1129296600,32.95,33.675,32,33.465,6.7758e+06
EOG,1129555800,34.25,34.75,34.05,34.405,4.8548e+06
EOG,1129642200,34.05,34.33,32.16,32.22,6.1422e+06
EOG,1129728600,32.22,33.21,31.095,33.165,7.8134e+06
EOG,1129815000,32.75,32.905,29.98,30.535,1.09688e+07
EOG,1129901400,30.41,31.535,30.18,30.625,7.919e+06
EOG,1130160600,30.225,32.27,30.2,32.06,5.077e+06
EOG,1130247000,32.465,33.795,32.105,33.51,7.0326e+06
EOG,1130333400,33.5,34.795,32.83,33.025,5.9422e+06
EOG,1130419800,33.625,33.67,31.885,31.945,5.421e+06
EOG,1130506200,31.975,33.395,31.12,33.01,7.4314e+06
EOG,1130769000,33.78,34.48,33.155,33.89,6.496e+06
EOG,1130855400,33.5,34.2,33.22,33.965,5.0662e+06
EOG,1130941800,34.125,35.5,34.125,35.25,6.375e+06
EOG,1131028200,35.375,36.275,35.11,35.915,5.417e+06
EOG,1131114600,35.795,35.815,34.075,34.23,5.3768e+06
EOG,1131373800,33.45,33.88,32.825,33.235,7.0074e+06
EOG,1131460200,33.08,33.785,32.55,33.18,4.9104e+06
EOG,1131546600,33.25,34.06,32.26,32.895,6.1588e+06
EOG,1131633000,32.525,32.54,31.065,31.625,7.561e+06
EOG,1131719400,31.18,32.395,31.18,32.07,4.3586e+06
EOG,1131978600,32.5,32.97,31.565,31.755,8.0278e+06
EOG,1132065000,31.59,33.945,31.55,33.065,8.2638e+06
EOG,1132151400,33.25,34.945,33.23,34.855,8.1524e+06
EOG,1132237800,35.245,35.42,34.35,34.785,6.6558e+06
EOG,1132324200,34.95,35.055,33.97,34.435,5.1416e+06
EOG,1132583400,34.655,36.15,34.655,36.07,5.7054e+06
EOG,1132669800,36.5,36.85,36.125,36.415,4.6704e+06
EOG,1132756200,35.75,36.37,35.26,35.71,4.9604e+06
EOG,1132929000,35.855,36.465,35.795,36.45,1.428e+06
EOG,1133188200,35.6,35.65,34.2,34.445,5.447e+06
EOG,1133274600,35.075,35.72,34.8,35.52,6.5796e+06
EOG,1133361000,36,36.3,35.51,35.875,5.6074e+06
EOG,1133447400,36.245,37.415,36.15,37.34,7.0214e+06
EOG,1133533800,37.425,37.745,36.7,37.595,4.9644e+06
EOG,1133793000,38.55,38.825,37.61,37.885,5.061e+06
EOG,1133879400,37.45,37.995,37.175,37.93,6.4252e+06
EOG,1133965800,38.125,39.19,37.66,38.175,5.3558e+06
EOG,1134052200,38.28,39.35,38.16,39.325,6.13e+06
EOG,1134138600,38.905,39.05,37.99,38.34,5.071e+06
EOG,1134397800,39.45,39.985,39,39.4,5.1394e+06
EOG,1134484200,40,41,39.545,39.58,7.9528e+06
EOG,1134570600,39.65,40.45,39.4,40.42,6.184e+06
EOG,1134657000,40.42,41,39.8,40.37,6.2748e+06
EOG,1134743400,40.435,40.435,38.7,38.825,5.5946e+06
EOG,1135002600,38.99,39.295,38.155,38.505,3.9194e+06
EOG,1135089000,38.475,38.965,38.28,38.78,3.52e+06
EOG,1135175400,39.015,39.185,38.12,38.435,4.2456e+06
EOG,1135261800,38.66,38.855,37.92,38.025,5.3568e+06
EOG,1135348200,37.325,38,36.76,37.99,3.915e+06
EOG,1135693800,37.585,37.605,35.895,36.325,5.811e+06
EOG,1135780200,36.64,37.42,36.425,37.125,3.6846e+06
EOG,1135866600,37.09,37.685,36.58,36.685,3.3478e+06
EOG,1135953000,36,37.05,35.99,36.685,3.2626e+06
EOG,1136298600,37,39.525,37,39.485,8.827e+06
EOG,1136385000,38.875,39.595,38.755,39.525,6.2066e+06
EOG,1136471400,39.325,39.325,37.755,38.04,6.8808e+06
EOG,1136557800,38.63,39.465,38.63,38.9,5.6362e+06
EOG,1136817000,38.91,39.205,38.07,39.08,5.2804e+06
EOG,1136903400,39.12,39.95,38.91,39,5.1388e+06
EOG,1136989800,38.955,39.39,38.38,39.19,5.5166e+06
EOG,1137076200,39.46,40.62,39.045,39.15,6.7264e+06
EOG,1137162600,39,40.235,38.95,40.095,5.7042e+06
EOG,1137508200,40.675,41.27,40.5,41.27,6.2368e+06
EOG,1137594600,40.875,41,39.305,40.255,5.5118e+06
EOG,1137681000,39.98,42.07,39.87,42.015,7.155e+06
EOG,1137767400,42.55,43.16,41.77,42.405,7.738e+06
EOG,1138026600,42,42.4,41.425,42.285,6.1376e+06
EOG,1138113000,41.81,42.48,41.525,41.62,5.5264e+06
EOG,1138199400,41.625,41.95,39.85,40.615,7.7354e+06
EOG,1138285800,40.15,40.25,38.795,40.07,7.458e+06
EOG,1138372200,41.25,41.25,39.91,40.195,6.292e+06
EOG,1138631400,40.5,42.09,40.475,41.71,5.3818e+06
EOG,1138717800,41.5,42.445,41.125,42.27,6.3256e+06
EOG,1138804200,42.575,43.455,41.265,41.475,8.615e+06
EOG,1138890600,41.35,41.35,39.36,40.355,1.00052e+07
EOG,1138977000,39.875,40.085,39.265,39.555,8.316e+06
EOG,1139236200,39.925,40.72,39.925,40.125,9.4522e+06
EOG,1139322600,39.125,39.275,36.955,37,1.1581e+07
EOG,1139409000,37,37.1,35.675,36.97,1.03016e+07
EOG,1139495400,37.1,37.65,34.75,35.15,1.11646e+07
EOG,1139581800,35.325,35.475,34.08,34.685,1.2633e+07
EOG,1139841000,34.345,34.8,33.85,34.13,8.7284e+06
EOG,1139927400,33,34.565,32.99,34.505,1.18254e+07
EOG,1140013800,34.925,35.425,34.185,34.67,9.8632e+06
EOG,1140100200,34.82,36.125,34.81,36.03,8.3496e+06
EOG,1140186600,36.5,36.74,35.725,35.775,7.0306e+06
EOG,1140532200,36.77,37.25,36,36.315,5.913e+06
EOG,1140618600,36.125,36.19,35.045,35.275,6.5276e+06
EOG,1140705000,34.92,35.905,34.225,34.925,7.9036e+06
EOG,1140791400,35.58,35.745,35.005,35.075,5.6084e+06
EOG,1141050600,34.825,34.975,34.075,34.145,5.9e+06
EOG,1141137000,33.745,33.82,32.805,33.7,8.9118e+06
EOG,1141223400,33.78,34.37,33.66,34.175,4.8726e+06
EOG,1141309800,34.175,35.275,33.885,34.66,7.7096e+06
EOG,1141396200,34.625,35.53,34.625,35.175,7.1494e+06
EOG,1141655400,34.75,34.95,32.91,33.31,9.4676e+06
EOG,1141741800,33.31,33.395,32.06,32.625,7.453e+06
EOG,1141828200,32.55,33.725,32.325,33.375,1.12328e+07
EOG,1141914600,33.875,34.1,32.47,32.65,8.0284e+06
EOG,1142001000,32.585,33.405,32.1,32.74,6.1686e+06
EOG,1142260200,32.9,33.975,32.895,33.845,4.9898e+06
EOG,1142346600,33.845,34.825,33.12,34.655,7.0912e+06
EOG,1142433000,34.175,35.24,33.85,35.195,6.4498e+06
EOG,1142519400,35.07,36.565,35,36.475,8.534e+06
EOG,1142605800,36.695,36.71,36.085,36.28,6.0918e+06
EOG,1142865000,35.5,36.19,34.185,34.25,8.4844e+06
EOG,1142951400,33.875,35.055,33.75,34.235,6.5594e+06
EOG,1143037800,34.25,35.425,34.145,34.72,5.9886e+06
EOG,1143124200,34.965,35.825,34.895,35.265,6.1804e+06
EOG,1143210600,35.395,36.275,35.32,35.975,5.4476e+06
EOG,1143469800,35.5,36.23,35.2,35.955,6.6772e+06
EOG,1143556200,36.25,36.69,36.045,36.28,5.5036e+06
EOG,1143642600,36.25,37.2,36.25,36.875,6.6194e+06
EOG,1143729000,36.925,37.61,36.85,37.015,5.2624e+06
EOG,1143815400,36.505,36.6,35.715,36,5.8104e+06
EOG,1144071000,36.7,36.97,35.785,35.95,5.7138e+06
EOG,1144157400,35.475,36.615,35.375,36.55,5.307e+06
EOG,1144243800,36.58,37.2,36.325,37.2,4.9576e+06
EOG,1144330200,37.65,37.65,36.525,37.29,6.8894e+06
EOG,1144416600,36.79,37.055,35.785,36.035,5.0208e+06
EOG,1144675800,36.5,37.25,36.5,36.95,5.1834e+06
EOG,1144762200,37.12,37.35,36.155,36.435,4.3362e+06
EOG,1144848600,36.585,36.915,35.97,36.05,4.1848e+06
EOG,1144935000,35.225,36.1,34.66,35.985,5.784e+06
EOG,1145280600,36.5,36.88,36.06,36.84,3.5332e+06
EOG,1145367000,37.185,38.65,37.175,38.59,6.6054e+06
EOG,1145453400,38.25,39.62,38.23,39.3,5.8764e+06
EOG,1145539800,38.925,39.1,37.64,38.325,5.1774e+06
EOG,1145626200,38.51,38.895,37.87,38.69,5.788e+06
EOG,1145885400,38.275,38.29,37.255,37.6,4.5272e+06
EOG,1145971800,37.735,38.105,36.4,36.665,5.305e+06
EOG,1146058200,36.73,37.595,35.645,35.835,5.6182e+06
EOG,1146144600,34.25,36.345,34.245,35.22,6.4056e+06
EOG,1146231000,37.25,37.25,34.925,35.115,5.004e+06
EOG,1146490200,35.615,36.41,35.37,35.905,5.7764e+06
EOG,1146576600,36.61,36.8,36.185,36.46,5.8234e+06
EOG,1146663000,36.465,36.52,35.58,35.945,6.103e+06
EOG,1146749400,35.5,36.26,35.065,35.725,5.2488e+06
EOG,1146835800,37,38.28,37,38.155,8.8444e+06
EOG,1147095000,37.05,37.385,36.555,37.275,5.2534e+06
EOG,1147181400,37.275,37.59,37.075,37.325,4.1738e+06
EOG,1147267800,37.05,37.895,36.955,37.86,5.3282e+06
EOG,1147354200,38.25,38.645,36.565,36.68,5.822e+06
EOG,1147440600,36.225,36.4,34.305,34.465,8.9092e+06
EOG,1147699800,33.925,34.175,32.37,33.035,9.394e+06
EOG,1147786200,33.48,33.64,32.845,33.25,6.9844e+06
EOG,1147872600,32.92,33.38,31.55,31.875,7.1522e+06
EOG,1147959000,31.925,32.495,30.885,31.03,8.6398e+06
EOG,1148045400,31.05,31.895,30.725,31.35,9.6916e+06
EOG,1148304600,30.85,31.615,30.045,31.445,1.05718e+07
EOG,1148391000,32.375,32.765,30.905,31.08,8.3488e+06
EOG,1148477400,30.5,31.445,29.8,30.645,9.1232e+06
EOG,1148563800,30.31,31.66,30.31,31.25,7.464e+06
EOG,1148650200,31.65,32.16,31.305,31.81,6.5426e+06
EOG,1148995800,32.375,32.6,31.39,31.45,5.3878e+06
EOG,1149082200,31.45,32.845,31.17,32.83,8.375e+06
EOG,1149168600,32.065,33.4,31.895,32.975,8.023e+06
EOG,1149255000,33.44,33.44,32.355,32.955,5.8048e+06
EOG,1149514200,33.22,33.35,31.33,31.46,6.7492e+06
EOG,1149600600,31.53,32.485,31.41,32.045,7.6882e+06
EOG,1149687000,31.7,32.025,30.535,30.625,8.374e+06
EOG,1149773400,29.91,30.525,28.545,30.4,1.66062e+07
EOG,1149859800,30.535,30.945,29.62,29.875,6.9528e+06
EOG,1150119000,29.875,30.3,28.7,28.74,7.4924e+06
EOG,1150205400,28.56,29.54,28.155,28.68,1.27424e+07
EOG,1150291800,28.975,30.34,28.92,30.22,1.10664e+07
EOG,1150378200,30.5,31.55,30.375,31.315,9.085e+06
EOG,1150464600,31.06,31.89,30.475,31.52,8.184e+06
EOG,1150723800,31.39,31.4,29.225,29.525,9.4724e+06
EOG,1150810200,29.635,30.305,29.375,29.545,8.1408e+06
EOG,1150896600,29.595,30.925,29.595,30.43,6.6756e+06
EOG,1150983000,30.025,30.71,30,30.325,5.8342e+06
EOG,1151069400,31.935,32.875,31.865,32.285,1.09492e+07
EOG,1151328600,32.26,32.905,31.85,32.8,5.1614e+06
EOG,1151415000,33.03,33.425,32.9,33.04,8.1024e+06
EOG,1151501400,33.275,33.41,32.82,33.215,5.7784e+06
EOG,1151587800,33.8,34.74,33.505,34.22,7.3714e+06
EOG,1151674200,34.345,34.99,34.13,34.67,7.3568e+06
EOG,1151933400,35.105,35.59,34.93,35.445,2.9152e+06
EOG,1152106200,35.345,35.91,34.775,35.815,7.5132e+06
EOG,1152192600,35.85,36.225,35.44,35.54,7.342e+06
EOG,1152279000,35.95,36.19,34.285,34.535,9.8058e+06
EOG,1152538200,34.125,35.12,34.125,34.78,6.9254e+06
EOG,1152624600,35.025,35.46,34.77,35.25,5.1906e+06
EOG,1152711000,35.055,35.65,34.685,35.125,5.939e+06
EOG,1152797400,35.2,35.575,34.54,34.75,8.76e+06
EOG,1152883800,34.93,35.15,33.795,35.075,6.542e+06
EOG,1153143000,34.625,34.815,33.41,33.725,7.2606e+06
EOG,1153229400,34.25,34.28,32.76,33.44,6.5472e+06
EOG,1153315800,33.44,34.215,33.275,33.995,5.868e+06
EOG,1153402200,34.055,34.385,33.25,33.25,4.677e+06
EOG,1153488600,33.425,33.45,32.15,32.2,7.4718e+06
EOG,1153747800,32.575,33.825,32.5,33.685,6.5822e+06
EOG,1153834200,34.26,35.24,34.005,34.69,6.2762e+06
EOG,1153920600,34.625,36.095,34.32,35.915,7.7716e+06
EOG,1154007000,36.21,36.305,35.135,35.31,5.9028e+06
EOG,1154093400,35,36.03,34.81,36.03,5.2096e+06
EOG,1154352600,36.45,37.78,36.375,37.075,8.7598e+06
EOG,1154439000,36.085,36.825,35.535,35.715,1.03404e+07
EOG,1154525400,36.05,36.665,35.135,35.41,7.3018e+06
EOG,1154611800,34.425,35.21,34.4,34.675,6.5324e+06
EOG,1154698200,34.8,35.1,34.185,34.795,6.346e+06
EOG,1154957400,34.895,35.435,34.485,34.95,5.6504e+06
EOG,1155043800,34.755,35.305,34.535,34.575,5.8186e+06
EOG,1155130200,35.16,35.855,34.8,35.16,5.4522e+06
EOG,1155216600,35.03,35.135,34.365,34.95,5.7282e+06
EOG,1155303000,34.825,34.855,33.95,34.07,4.4616e+06
EOG,1155562200,33.82,33.835,32.925,33.065,6.3556e+06
EOG,1155648600,33.48,33.48,32.875,33.1,6.6606e+06
EOG,1155735000,33.125,33.615,32.47,32.66,7.9274e+06
EOG,1155821400,32.24,32.795,32.105,32.72,6.2802e+06
EOG,1155907800,32.75,33.3,32.575,33.17,5.5184e+06
EOG,1156167000,33.295,33.715,33.225,33.26,4.2104e+06
EOG,1156253400,33.25,33.705,33.125,33.57,3.6304e+06
EOG,1156339800,33.5,33.87,32.81,32.895,3.9408e+06
EOG,1156426200,33,33.78,32.78,33.705,4.8528e+06
EOG,1156512600,34.4,34.955,34.175,34.565,6.1822e+06
EOG,1156771800,33.75,34.42,33.525,33.915,4.2444e+06
EOG,1156858200,33.645,33.65,32.75,32.815,8.155e+06
EOG,1156944600,32.815,33.13,32.065,32.595,5.925e+06
EOG,1157031000,32.325,32.955,32.165,32.41,7.1274e+06
EOG,1157117400,32.425,33.06,32.425,32.97,2.7166e+06
EOG,1157463000,32.66,33.41,32.66,33.305,3.9774e+06
EOG,1157549400,32.64,32.775,31.535,31.575,7.7706e+06
EOG,1157635800,31.335,31.85,31.095,31.5,6.2662e+06
EOG,1157722200,31.5,31.65,30.315,30.445,5.9134e+06
EOG,1157981400,29.99,30.375,29.225,29.885,8.706e+06
EOG,1158067800,29.94,30.355,29.52,29.91,5.947e+06
EOG,1158154200,29.855,30.845,29.855,30.39,8.156e+06
EOG,1158240600,30.48,30.775,29.245,29.36,7.5118e+06
EOG,1158327000,29.575,30,29.3,29.92,7.891e+06
EOG,1158586200,30.4,31.94,30.39,31.345,1.14906e+07
EOG,1158672600,31.35,31.605,30.47,30.95,8.16e+06
EOG,1158759000,30.615,31.085,30.15,30.495,9.8666e+06
EOG,1158845400,30.6,31.97,30.585,31.25,1.08122e+07
EOG,1158931800,31.35,31.455,30.585,31.095,8.5312e+06
EOG,1159191000,30.775,31.72,30.35,31.65,1.10524e+07
EOG,1159277400,31.5,32.26,31.255,32.105,1.00644e+07
EOG,1159363800,32.28,32.73,31.7,32.65,9.525e+06
EOG,1159450200,32.525,32.88,31.945,31.945,1.06834e+07
EOG,1159536600,32.45,32.85,31.99,32.525,1.00808e+07
EOG,1159795800,32.65,32.92,32.175,32.275,8.9242e+06
EOG,1159882200,31.5,31.545,30.915,31.05,1.1802e+07
EOG,1159968600,31.05,31.565,29.94,31.475,1.43674e+07
EOG,1160055000,32.095,32.32,31.165,31.74,1.01956e+07
EOG,1160141400,31.55,31.835,30.95,31.655,7.1606e+06
EOG,1160400600,31.9,32.33,31.285,31.41,6.4734e+06
EOG,1160487000,31.295,32.325,31.24,31.85,8.0072e+06
EOG,1160573400,31.625,31.86,31.115,31.15,8.8582e+06
EOG,1160659800,31.3,32,31.185,31.855,7.9164e+06
EOG,1160746200,31.995,32.83,31.965,32.47,7.347e+06
EOG,1161005400,32.475,33.77,32.47,33.615,8.3658e+06
EOG,1161091800,33.49,33.53,32.675,33.1,6.9224e+06
EOG,1161178200,33.005,33.445,32.63,33.03,7.6382e+06
EOG,1161264600,33.215,33.705,32.77,33.63,7.0914e+06
EOG,1161351000,33.69,33.705,32.66,33.125,5.8716e+06
EOG,1161610200,32.86,33.23,32.51,33.055,6.2302e+06
EOG,1161696600,32.955,34.54,32.885,34.465,8.5754e+06
EOG,1161783000,33.625,35.405,33.565,35.17,8.0884e+06
EOG,1161869400,35.5,35.535,34.245,34.67,6.2222e+06
EOG,1161955800,34.545,35.035,33.935,34.005,4.7024e+06
EOG,1162218600,33.61,34.055,33.25,33.5,7.2194e+06
EOG,1162305000,33.45,33.665,32.525,33.265,8.7938e+06
EOG,1162391400,33.125,33.375,32.54,33.01,6.9968e+06
EOG,1162477800,32.65,33.185,32.29,32.875,6.7314e+06
EOG,1162564200,33.35,34.065,33.22,33.565,5.3366e+06
EOG,1162823400,33.235,33.865,32.975,33.445,5.4718e+06
EOG,1162909800,33.63,33.64,32.97,33.125,5.6838e+06
EOG,1162996200,33,33.98,32.96,33.825,5.2962e+06
EOG,1163082600,34.23,34.99,33.905,34.605,9.9372e+06
EOG,1163169000,34.2,34.245,33.38,33.73,4.9294e+06
EOG,1163428200,33.065,33.98,33.065,33.48,4.6942e+06
EOG,1163514600,33.815,33.915,33.495,33.835,4.9094e+06
EOG,1163601000,33.63,34.52,33.61,34.235,6.7918e+06
EOG,1163687400,34.57,34.715,32.865,32.965,6.2576e+06
EOG,1163773800,32.75,34.25,32.75,34.15,7.0472e+06
EOG,1164033000,33.915,34.255,33.52,34.11,5.787e+06
EOG,1164119400,34.19,34.865,33.995,34.775,8.5742e+06
EOG,1164205800,34.775,34.905,34.15,34.78,6.4988e+06
EOG,1164378600,34.85,35.34,34.735,34.735,2.0456e+06
EOG,1164637800,34.96,35.065,34.45,34.465,5.1078e+06
EOG,1164724200,34.59,35.71,34.59,35.485,7.712e+06
EOG,1164810600,35.75,36.135,34.775,36.03,1.2554e+07
EOG,1164897000,35.6,35.7,34.83,35.265,1.10252e+07
EOG,1164983400,34.955,35.36,34.43,35.315,5.826e+06
EOG,1165242600,34.875,35.055,34.24,34.585,5.264e+06
EOG,1165329000,34.78,34.965,34.315,34.665,6.123e+06
EOG,1165415400,34.45,35.275,34.45,34.675,4.7144e+06
EOG,1165501800,34.675,34.835,34.26,34.47,3.8816e+06
EOG,1165588200,34.725,34.825,34.195,34.335,4.2276e+06
EOG,1165847400,34.255,34.55,33.77,34.195,4.3664e+06
EOG,1165933800,34.21,34.585,33.86,34.135,4.3754e+06
EOG,1166020200,34.46,34.655,34.02,34.315,3.8834e+06
EOG,1166106600,34.535,35.085,34.29,34.91,6.3036e+06
EOG,1166193000,34.91,34.98,33.97,34.31,5.5598e+06
EOG,1166452200,33.95,33.95,32.56,32.74,6.1808e+06
EOG,1166538600,31.65,33.555,31.65,33.215,4.9606e+06
EOG,1166625000,33.29,33.29,32.445,32.505,4.978e+06
EOG,1166711400,32.7,32.835,32.14,32.5,4.7752e+06
EOG,1166797800,32.5,32.54,32.105,32.155,3.0278e+06
EOG,1167143400,31.55,32.43,31.47,31.58,3.4e+06
EOG,1167229800,31.58,31.95,31.165,31.835,5.1964e+06
EOG,1167316200,32,32.19,31.655,31.84,3.7594e+06
EOG,1167402600,31.625,31.8,30.935,31.225,5.9538e+06
EOG,1167834600,30.905,31.735,29.605,30.33,1.10058e+07
EOG,1167921000,30.86,30.935,29.88,30.35,1.13062e+07
EOG,1168007400,30.65,31.5,30.45,31.34,1.30436e+07
EOG,1168266600,31.93,32,30.645,31.125,8.0596e+06
EOG,1168353000,30.5,30.945,30.06,30.725,1.08208e+07
EOG,1168439400,30.625,30.805,30.01,30.49,7.1944e+06
EOG,1168525800,31.035,31.04,29.855,29.98,9.1706e+06
EOG,1168612200,30,31.22,29.99,31.14,7.472e+06
EOG,1168957800,31.06,31.545,30.755,31.015,6.0566e+06
EOG,1169044200,30.955,31.41,30.87,31.085,6.105e+06
EOG,1169130600,31.255,31.35,30.6,30.85,4.997e+06
EOG,1169217000,31.2,32.435,31.065,32.365,6.78e+06
EOG,1169476200,32.75,33.225,32.185,32.465,8.4964e+06
EOG,1169562600,32.785,34.055,32.765,33.745,7.2642e+06
EOG,1169649000,33.415,33.705,32.845,33.68,5.3098e+06
EOG,1169735400,33.545,33.545,32.39,32.48,6.6892e+06
EOG,1169821800,32.8,33.135,32.545,32.785,4.264e+06
EOG,1170081000,33.085,33.745,32.475,32.515,5.342e+06
EOG,1170167400,32.515,34.235,32.515,34.03,7.4494e+06
EOG,1170253800,33.35,34.875,33.165,34.565,8.2648e+06
EOG,1170340200,34.75,34.975,34.05,34.795,1.00076e+07
EOG,1170426600,34.71,34.77,34.02,34.345,5.5812e+06
EOG,1170685800,34.43,34.87,33.93,33.975,5.881e+06
EOG,1170772200,34.455,34.465,33.345,33.57,5.5814e+06
EOG,1170858600,33.575,33.855,32.98,33.275,4.512e+06
EOG,1170945000,33.275,33.405,32.78,33.305,6.0088e+06
EOG,1171031400,33.42,33.81,33.14,33.285,3.502e+06
EOG,1171290600,32.835,33.08,32.2,32.52,4.7726e+06
EOG,1171377000,32.995,33.085,32.54,32.885,5.9736e+06
EOG,1171463400,32.995,33.335,32.8,33.06,4.3056e+06
EOG,1171549800,32.9,33.05,32.355,32.895,5.8026e+06
EOG,1171636200,32.97,33.765,32.955,33.5,6.5028e+06
EOG,1171981800,33.2,33.31,33,33.2,4.8838e+06
EOG,1172068200,33.305,33.81,32.91,33.65,4.1774e+06
EOG,1172154600,33.86,34.4,33.665,34.255,5.5872e+06
EOG,1172241000,34.505,34.585,33.73,33.93,3.7504e+06
EOG,1172500200,34.2,34.875,34.135,34.79,5.4838e+06
EOG,1172586600,33.985,34.91,33.375,33.8,5.9004e+06
EOG,1172673000,33.88,34.15,33.33,33.87,5.4096e+06
EOG,1172759400,33.185,33.97,32.985,33.525,5.433e+06
EOG,1172845800,33.42,33.61,32.85,32.96,4.252e+06
EOG,1173105000,32.385,32.925,32,32.4,5.6638e+06
EOG,1173191400,32.8,33.1,32.61,33.1,5.3584e+06
EOG,1173277800,33.09,34.15,32.915,33.605,5.4592e+06
EOG,1173364200,33.775,33.985,33.31,33.485,4.149e+06
EOG,1173450600,33.695,33.875,33.26,33.455,2.6078e+06
EOG,1173706200,33.195,33.24,32.875,33.06,3.9126e+06
EOG,1173792600,33.04,34.015,32.845,32.935,5.6432e+06
EOG,1173879000,33.225,33.705,32.8,33.695,5.0778e+06
EOG,1173965400,33.6,33.8,33.275,33.365,2.9614e+06
EOG,1174051800,33.45,33.525,32.65,32.82,5.5716e+06
EOG,1174311000,33.22,33.46,33.005,33.39,3.1946e+06
EOG,1174397400,33.65,34.015,33.375,33.965,4.2804e+06
EOG,1174483800,34.12,35,34.025,34.86,7.0036e+06
EOG,1174570200,35.25,35.935,35.115,35.6,6.8518e+06
EOG,1174656600,35.63,35.83,35.34,35.725,4.2144e+06
EOG,1174915800,35.995,36.3,35.405,36.24,5.3528e+06
EOG,1175002200,36.015,36.315,35.735,35.985,5.519e+06
EOG,1175088600,36.5,36.545,35.55,35.835,5.0222e+06
EOG,1175175000,36.125,36.2,35.675,35.935,3.5648e+06
EOG,1175261400,35.98,35.98,35.5,35.67,5.8182e+06
EOG,1175520600,35.74,36.395,35.67,36.3,3.4596e+06
EOG,1175607000,35.875,36.535,35.575,36.535,3.6604e+06
EOG,1175693400,36.27,37.225,36.135,37.075,6.2726e+06
EOG,1175779800,37.025,37.445,36.85,37.375,4.9494e+06
EOG,1176125400,37.425,37.93,37.055,37.195,4.2154e+06
EOG,1176211800,37.3,38.025,37.225,37.955,4.5322e+06
EOG,1176298200,37.095,38.1,37.095,37.605,3.7126e+06
EOG,1176384600,37.91,38.585,37.665,38.58,3.8148e+06
EOG,1176471000,38.49,38.8,38.255,38.49,3.7674e+06
EOG,1176730200,38.415,38.725,37.795,38.675,4.2704e+06
EOG,1176816600,38.75,38.855,37.79,37.955,5.8422e+06
EOG,1176903000,37.79,37.79,37.25,37.325,6.3358e+06
EOG,1176989400,37.195,37.195,36.52,36.74,4.9478e+06
EOG,1177075800,36.79,37.185,36.5,36.99,6.147e+06
EOG,1177335000,36.43,37.27,36.41,37.105,3.1096e+06
EOG,1177421400,37.18,37.36,36.965,37.195,3.4888e+06
EOG,1177507800,37.375,38.065,37.31,37.7,4.3034e+06
EOG,1177594200,37.45,37.505,36.88,37.25,4.5826e+06
EOG,1177680600,37.075,37.485,36.9,37.125,3.6212e+06
EOG,1177939800,37.065,37.61,36.72,36.72,4.3584e+06
EOG,1178026200,37.365,38.66,36.9,37.89,1.10278e+07
EOG,1178112600,37.96,38.8,37.85,38.705,4.6708e+06
EOG,1178199000,38.635,39.07,38.3,39.01,5.868e+06
EOG,1178285400,39.065,39.33,38.33,38.46,3.818e+06
EOG,1178544600,38.31,38.74,38.23,38.565,3.1282e+06
EOG,1178631000,38.31,38.41,37.47,38.375,5.3178e+06
EOG,1178717400,38.345,38.44,37.635,37.97,4.8684e+06
EOG,1178803800,37.865,38.19,37.15,37.27,3.87e+06
EOG,1178890200,37.77,38.005,37.305,37.955,3.9046e+06
EOG,1179149400,38.07,38.825,38.03,38.555,4.7446e+06
EOG,1179235800,38.405,38.63,37.78,37.9,4.1594e+06
EOG,1179322200,38.025,38.15,37.315,37.825,5.0042e+06
EOG,1179408600,37.9,38.66,37.4,38.35,5.0474e+06
EOG,1179495000,37.775,39.295,37.775,39.235,4.7428e+06
EOG,1179754200,39.365,39.605,38.915,39.265,5.0966e+06
EOG,1179840600,39.265,39.525,38.69,38.765,3.3192e+06
EOG,1179927000,38.7,39.575,38.635,38.76,3.9392e+06
EOG,1180013400,39.495,39.55,37.73,37.91,4.292e+06
EOG,1180099800,38.4,38.6,37.87,38.305,4.2698e+06
EOG,1180445400,38.2,38.35,37.475,37.915,3.7692e+06
EOG,1180531800,38.75,38.93,37.69,38.86,4.2674e+06
EOG,1180618200,39.16,39.25,38.38,38.45,4.276e+06
EOG,1180704600,38.955,39.125,38.465,38.57,4.8976e+06
EOG,1180963800,38.31,39.55,38.26,39.455,3.7028e+06
EOG,1181050200,39.1,39.34,38.8,38.97,3.7956e+06
EOG,1181136600,39.59,39.59,38,38.22,4.1976e+06
EOG,1181223000,38.04,38.78,37.33,37.445,4.9662e+06
EOG,1181309400,37.07,37.69,36.705,37.67,4.0446e+06
EOG,1181568600,37.65,38.185,37.405,37.83,2.8626e+06
EOG,1181655000,37.83,38.615,37.53,37.905,4.479e+06
EOG,1181741400,38.05,38.84,38.025,38.725,4.0034e+06
EOG,1181827800,38.805,40.125,38.765,40.005,6.009e+06
EOG,1181914200,40.145,40.36,39.66,40.245,4.786e+06
EOG,1182173400,40.695,40.745,40.055,40.13,3.3918e+06
EOG,1182259800,39.975,40.07,39.64,39.725,3.5858e+06
EOG,1182346200,39.85,40.2,38.305,38.39,5.0004e+06
EOG,1182432600,38.92,39.49,38.53,39.45,4.4346e+06
EOG,1182519000,39.05,39.3,37.69,38.31,6.9988e+06
EOG,1182778200,37.605,37.745,36.835,37.215,1.00156e+07
EOG,1182864600,37.955,38.07,36.1,36.33,7.1024e+06
EOG,1182951000,35.78,36.96,35.665,36.93,6.7044e+06
EOG,1183037400,37.06,37.42,35.93,36.225,7.101e+06
EOG,1183123800,36.105,37.35,36.105,36.53,9.0768e+06
EOG,1183383000,36.71,37.065,36.295,37.065,5.6446e+06
EOG,1183469400,36.25,37.595,36.215,37.34,2.8736e+06
EOG,1183642200,37,37.655,36.9,37.33,4.9338e+06
EOG,1183728600,37.75,37.97,37.38,37.47,5.1904e+06
EOG,1183987800,37.265,37.75,37.03,37.285,4.418e+06
EOG,1184074200,37.03,37.73,36.91,37.08,5.4434e+06
EOG,1184160600,36.575,37.285,36.575,37.21,5.1958e+06
EOG,1184247000,37.49,37.63,36.825,37.295,4.0788e+06
EOG,1184333400,37.04,37.75,36.775,37.455,3.6558e+06
EOG,1184592600,37.315,37.43,36.055,36.525,4.8704e+06
EOG,1184679000,36.87,37.175,36.265,36.345,4.4504e+06
EOG,1184765400,36.115,37.665,36.1,37.565,7.249e+06
EOG,1184851800,37.775,38.215,37.475,38.1,4.9032e+06
EOG,1184938200,38.225,38.46,37.36,37.515,5.9822e+06
EOG,1185197400,36.805,36.805,35.7,36.045,9.6316e+06
EOG,1185283800,35.575,35.72,34.955,35.14,6.8104e+06
EOG,1185370200,34.95,35.735,34.495,35.62,5.748e+06
EOG,1185456600,35.43,35.565,34.15,34.975,7.9274e+06
EOG,1185543000,34.975,35.535,34.205,34.555,6.5658e+06
EOG,1185802200,34.875,35.845,34.795,35.545,6.8366e+06
EOG,1185888600,36.125,36.275,34.94,35.05,5.9298e+06
EOG,1185975000,35.32,36.22,34.635,35.795,7.433e+06
EOG,1186061400,36.22,37.15,35.58,36.57,8.5516e+06
EOG,1186147800,35.9,36.765,35.115,35.235,8.4738e+06
EOG,1186407000,35.18,35.37,33.86,35.26,7.1036e+06
EOG,1186493400,35.37,36.21,34.675,35.995,9.3746e+06
EOG,1186579800,36.5,37.725,36.205,36.625,8.0642e+06
EOG,1186666200,36.005,37.915,35.545,36.565,7.8074e+06
EOG,1186752600,35.5,36.24,34.725,35.995,8.231e+06
EOG,1187011800,36.225,36.5,35.73,35.745,5.6166e+06
EOG,1187098200,35.6,36.07,35.1,35.17,4.24e+06
EOG,1187184600,35.515,35.93,34.18,34.34,5.7772e+06
EOG,1187271000,33.75,34.74,32.8,34.5,9.6624e+06
EOG,1187357400,35.08,36.03,34.69,35.79,6.786e+06
EOG,1187616600,34.93,35.425,34.255,34.89,6.122e+06
EOG,1187703000,34.585,34.855,33.755,34.045,5.6634e+06
EOG,1187789400,34.4,34.49,33.11,33.35,7.7744e+06
EOG,1187875800,33.7,33.885,32.96,33.535,4.8438e+06
EOG,1187962200,33.8,34.1,33.46,33.945,3.3328e+06
EOG,1188221400,33.805,33.805,33.225,33.42,3.2536e+06
EOG,1188307800,33.18,33.33,32.645,32.85,4.246e+06
EOG,1188394200,33.13,33.49,32.775,33.36,3.2704e+06
EOG,1188480600,33.36,33.99,33.05,33.37,4.3136e+06
EOG,1188567000,33.705,34.215,33.63,33.68,3.5382e+06
EOG,1188912600,33.68,34.925,33.43,34.565,4.2916e+06
EOG,1188999000,34.56,35.08,34.5,34.695,4.854e+06
EOG,1189085400,34.83,35.795,34.83,35.35,6.7748e+06
EOG,1189171800,35.035,35.135,34.525,34.95,5.2858e+06
EOG,1189431000,34.9,35.275,34.205,35.16,5.5818e+06
EOG,1189517400,35.205,35.77,34.595,35.645,5.1668e+06
EOG,1189603800,35.8,36.73,35.705,36.26,7.5096e+06
EOG,1189690200,36.225,36.385,35.73,35.86,4.1864e+06
EOG,1189776600,35.505,36.325,35.505,36.175,3.4542e+06
EOG,1190035800,36.285,36.405,35.785,35.925,2.9198e+06
EOG,1190122200,36,36.965,35.395,36.925,5.2162e+06
EOG,1190208600,37.35,37.495,36.89,37.11,4.6092e+06
EOG,1190295000,36.93,37.18,36.59,36.915,3.4124e+06
EOG,1190381400,37.31,37.625,36.915,37.245,3.4234e+06
EOG,1190640600,37.2,37.435,36.635,36.88,3.3294e+06
EOG,1190727000,36.475,36.625,35.815,36.435,3.4348e+06
EOG,1190813400,36.725,36.975,35.85,36.185,5.6076e+06
EOG,1190899800,36.5,36.565,35.82,36.19,4.6678e+06
EOG,1190986200,36.4,36.545,35.955,36.165,3.1454e+06
EOG,1191245400,36.205,36.705,36.1,36.635,3.3616e+06
EOG,1191331800,36.395,37.77,36.36,37.35,4.293e+06
EOG,1191418200,37.17,37.46,36.855,37.24,3.7136e+06
EOG,1191504600,37.31,38.5,37.04,38.275,5.5928e+06
EOG,1191591000,38.205,38.95,38.12,38.705,5.9018e+06
EOG,1191850200,38.275,38.64,38.03,38.255,2.4766e+06
EOG,1191936600,38.55,39.42,38.335,39.13,4.3858e+06
EOG,1192023000,38.915,40,38.815,39.775,4.3174e+06
EOG,1192109400,39.965,41.3,39.905,40.45,8.1314e+06
EOG,1192195800,40.205,40.93,40.11,40.685,3.3886e+06
EOG,1192455000,41.075,41.64,40.55,40.83,4.5018e+06
EOG,1192541400,40.825,41.15,40.635,40.84,4.0588e+06
EOG,1192627800,41,41.275,40.45,40.76,4.9494e+06
EOG,1192714200,40.73,41.36,40.65,41.085,5.5104e+06
EOG,1192800600,40.94,41.025,39.83,39.9,7.9952e+06
EOG,1193059800,38.945,39.24,38.25,39.195,6.7618e+06
EOG,1193146200,39.63,39.89,38.435,38.715,7.4996e+06
EOG,1193232600,38.66,39.525,38.185,39.275,5.423e+06
EOG,1193319000,39.435,40.535,39.435,40.385,4.804e+06
EOG,1193405400,41.13,41.465,40.385,40.955,3.4478e+06
EOG,1193664600,41.245,41.37,40.89,41.255,4.7272e+06
EOG,1193751000,42.045,43.16,41.965,42.975,1.53442e+07
EOG,1193837400,43.435,44.855,43.15,44.3,9.933e+06
EOG,1193923800,43.735,44.25,42.995,43.3,7.8172e+06
EOG,1194010200,43.735,43.975,43.03,43.735,4.9344e+06
EOG,1194273000,43.375,43.755,41.9,43.5,4.0248e+06
EOG,1194359400,44.195,45.365,43.8,44.235,6.1298e+06
EOG,1194445800,44.05,44.55,43.35,43.35,5.1426e+06
EOG,1194532200,43.4,44.775,43.07,44.06,6.2242e+06
EOG,1194618600,43.565,44.155,43.175,43.705,6.296e+06
EOG,1194877800,42.875,43.085,41.38,42.145,6.9476e+06
EOG,1194964200,42.415,42.91,41.39,42.83,6.1228e+06
EOG,1195050600,43.625,44.91,43.3,43.625,5.6386e+06
EOG,1195137000,43.54,43.585,42.09,42.55,5.5894e+06
EOG,1195223400,42.69,43.33,42.265,42.64,7.8828e+06
EOG,1195482600,42.51,42.95,41.89,41.99,4.17e+06
EOG,1195569000,42.23,42.545,41.43,41.86,6.5242e+06
EOG,1195655400,41.55,41.93,41,41.225,4.1384e+06
EOG,1195828200,41.39,42.015,41.045,41.82,2.1366e+06
EOG,1196087400,42.075,42.63,41.45,41.45,3.4768e+06
EOG,1196173800,40.615,41.315,40.395,41.25,4.304e+06
EOG,1196260200,41.475,41.93,40.825,41.845,5.163e+06
EOG,1196346600,41.815,42.43,41.325,41.605,4.0596e+06
EOG,1196433000,41.25,42.015,41,41.39,4.5474e+06
EOG,1196692200,41.25,41.8,40.925,41.405,3.298e+06
EOG,1196778600,41.46,41.625,40.785,41.385,4.2668e+06
EOG,1196865000,41.88,42.83,41.71,42.62,5.1166e+06
EOG,1196951400,42.605,44.61,42.47,44.41,5.785e+06
EOG,1197037800,44.58,44.855,43.53,44.08,5.1464e+06
EOG,1197297000,44.115,44.5,43.84,44.36,3.7572e+06
EOG,1197383400,44.5,45.135,43.91,43.985,6.1934e+06
EOG,1197469800,44.965,45.725,44.755,45.445,5.4232e+06
EOG,1197556200,44.905,45.815,44.54,45.215,5.7814e+06
EOG,1197642600,44.975,45.07,44.145,44.175,4.9268e+06
EOG,1197901800,44.07,44.525,43.4,43.665,3.5116e+06
EOG,1197988200,44.395,44.45,43.325,43.675,4.4568e+06
EOG,1198074600,43.995,44.58,43.66,44.155,3.174e+06
EOG,1198161000,44.49,44.985,44.18,44.85,3.0122e+06
EOG,1198247400,45.225,45.4,44.93,45.215,4.2326e+06
EOG,1198506600,44.855,45.725,44.855,45.51,1.1594e+06
EOG,1198679400,45.395,45.63,45.06,45.14,3.6026e+06
EOG,1198765800,45.04,45.405,44.775,44.81,2.414e+06
EOG,1198852200,44.96,45.61,44.845,45.46,2.9344e+06
EOG,1199111400,45.355,45.665,44.545,44.625,2.0024e+06
EOG,1199284200,45,46,45,45.645,4.804e+06
EOG,1199370600,45.65,47.18,45.555,46.59,5.0886e+06
EOG,1199457000,46.105,46.105,44.405,44.485,5.6842e+06
EOG,1199716200,44.85,45.265,43.57,44.31,4.8444e+06
EOG,1199802600,44.61,45.39,43.34,43.435,3.9968e+06
EOG,1199889000,43.625,44.76,43.625,44.59,6.048e+06
EOG,1199975400,44.165,44.76,43.59,44.51,5.305e+06
EOG,1200061800,43.945,44.77,43.785,44.465,5.7472e+06
EOG,1200321000,44.735,46.78,44.735,46.585,5.7356e+06
EOG,1200407400,45.625,46.475,45.195,45.495,6.5822e+06
EOG,1200493800,45.31,45.92,43.975,44.305,1.04142e+07
EOG,1200580200,44.36,45.335,41.995,41.995,7.025e+06
EOG,1200666600,42.22,43.19,41.61,42.565,7.6994e+06
EOG,1201012200,41.055,42.55,39.75,41.73,7.5002e+06
EOG,1201098600,40.71,41.47,38.59,41.33,8.2388e+06
EOG,1201185000,41.995,43.075,41.37,42.795,6.3532e+06
EOG,1201271400,43.125,43.71,41.68,41.99,5.7074e+06
EOG,1201530600,41.965,42.705,41.265,42.705,4.0678e+06
EOG,1201617000,42.875,43.125,42.06,42.51,3.7314e+06
EOG,1201703400,42.24,44.485,42.24,43.28,5.721e+06
EOG,1201789800,42.445,44.06,41.84,43.665,5.017e+06
EOG,1201876200,43.71,44.725,43.435,44.725,5.5018e+06
EOG,1202135400,44.56,45.515,44.43,45.33,3.821e+06
EOG,1202221800,44.085,45.02,43.75,43.75,5.6346e+06
EOG,1202308200,44.42,44.85,43.595,43.91,6.1618e+06
EOG,1202394600,43.56,45.5,43.56,45.045,7.087e+06
EOG,1202481000,45.69,47.655,45.625,47.06,8.5104e+06
EOG,1202740200,46.85,49.27,46.57,49.215,1.0868e+07
EOG,1202826600,49.42,50.25,48.39,48.965,8.002e+06
EOG,1202913000,49.435,50.375,49.305,50.075,7.3148e+06
EOG,1202999400,49.435,50.24,48.81,48.81,7.077e+06
EOG,1203085800,48.53,49.395,46.9,48.015,6.7574e+06
EOG,1203431400,49.14,50.475,48.32,49.205,7.992e+06
EOG,1203517800,48.525,50.49,48.525,50.26,5.3698e+06
EOG,1203604200,50.45,50.45,48.73,48.835,5.6008e+06
EOG,1203690600,48.94,49.78,48.485,49.675,4.145e+06
EOG,1203949800,50.01,52.335,50.01,52.065,9.7534e+06
EOG,1204036200,51.92,54.46,51.185,54.115,1.3196e+07
EOG,1204122600,53.255,54.07,52.735,52.84,6.5348e+06
EOG,1204209000,56.37,64.95,56.275,62.365,3.28436e+07
EOG,1204295400,61.565,61.945,58.965,59.495,1.0887e+07
EOG,1204554600,59.535,61.735,59.02,61.085,1.04782e+07
EOG,1204641000,60,61.235,58.3,59.95,1.01056e+07
EOG,1204727400,60.495,60.815,59.59,60.305,9.2276e+06
EOG,1204813800,59.89,60.37,58.665,58.805,7.266e+06
EOG,1204900200,58.225,59.215,57.48,58.23,8.1682e+06
EOG,1205155800,58.23,58.23,56.77,57.28,7.0746e+06
EOG,1205242200,58.385,61.11,58.04,60.95,7.9376e+06
EOG,1205328600,60.875,61.095,58.66,59.465,5.7738e+06
EOG,1205415000,58.74,64.075,58.74,63.48,1.06602e+07
EOG,1205501400,63.115,63.49,61.52,63.05,8.3274e+06
EOG,1205760600,61.675,62.085,58.6,60.205,7.8524e+06
EOG,1205847000,61.715,61.75,60.41,61.735,6.946e+06
EOG,1205933400,61.43,62.575,56.47,56.56,1.01942e+07
EOG,1206019800,55,56.56,52.95,56.135,1.22642e+07
EOG,1206365400,56.475,57.955,55.71,57.005,5.96e+06
EOG,1206451800,57.39,58.875,56.725,58.11,5.086e+06
EOG,1206538200,57.88,60.78,57.88,60.205,6.711e+06
EOG,1206624600,60.185,61.44,58.93,58.96,4.897e+06
EOG,1206711000,59.5,60.415,58.76,59.44,3.7968e+06
EOG,1206970200,60.27,60.97,58.75,60,4.462e+06
EOG,1207056600,60.61,60.865,58.88,60.435,4.5798e+06
EOG,1207143000,60.645,61.84,59.37,60.68,4.7168e+06
EOG,1207229400,60.2,61.8,60.2,60.72,4.7064e+06
EOG,1207315800,61.335,62.65,61.055,61.89,3.8562e+06
EOG,1207575000,62.47,64.285,62.145,63.09,6.0666e+06
EOG,1207661400,62.625,64.72,62.625,64.38,4.8508e+06
EOG,1207747800,63.885,65,63.32,63.845,5.5236e+06
EOG,1207834200,63.725,65.235,63.725,64.91,5.3234e+06
EOG,1207920600,64.175,64.595,62.845,63.16,4.8026e+06
EOG,1208179800,63.245,64.815,63.245,63.945,4.8132e+06
EOG,1208266200,65.05,67.265,64.445,65.57,4.7348e+06
EOG,1208352600,66.475,66.5,64.76,66.5,4.6106e+06
EOG,1208439000,66.5,67.46,65.58,65.98,4.8208e+06
EOG,1208525400,66.49,67.255,64.535,67.085,4.2088e+06
EOG,1208784600,67.495,69.275,67.155,68.705,6.4878e+06
EOG,1208871000,68.99,70.245,68.23,68.625,3.912e+06
EOG,1208957400,68.5,69,67.395,68.625,4.5034e+06
EOG,1209043800,67.79,68.12,65.45,65.875,4.6832e+06
EOG,1209130200,66.35,68.16,65.45,67.875,5.4114e+06
EOG,1209389400,68.47,68.57,66.87,67.02,3.8656e+06
EOG,1209475800,66.345,66.345,63.95,64.18,5.6582e+06
EOG,1209562200,64.255,65.485,63.735,65.24,5.2978e+06
EOG,1209648600,64.595,64.685,61.36,63.425,6.9624e+06
EOG,1209735000,62.6,65,61.96,63.875,5.951e+06
EOG,1209994200,64.385,66.8,64.24,66.27,4.265e+06
EOG,1210080600,65.965,69.075,65.965,68.94,5.2178e+06
EOG,1210167000,69.545,69.675,67.425,67.51,5.714e+06
EOG,1210253400,67.29,70.09,67.1,69.895,6.6488e+06
EOG,1210339800,70.445,70.445,67.99,69.25,5.1428e+06
EOG,1210599000,68.95,68.95,67.55,68,5.6526e+06
EOG,1210685400,68.56,69.55,67.145,69.275,5.5882e+06
EOG,1210771800,69.79,69.93,67.255,67.435,5.0936e+06
EOG,1210858200,68.975,69.2,66.425,67.985,6.917e+06
EOG,1210944600,68.605,70.94,68.545,70.495,7.0978e+06
EOG,1211203800,71.055,71.055,69.575,69.95,6.7538e+06
EOG,1211290200,70.09,72.14,69.6,71.705,6.6872e+06
EOG,1211376600,72,72.495,69.39,69.4,9.4436e+06
EOG,1211463000,69.485,70.255,67.725,68.35,5.5736e+06
EOG,1211549400,68.995,69.5,66.215,67.485,5.5636e+06
EOG,1211895000,67.375,67.44,66.03,66.565,4.1156e+06
EOG,1211981400,65.735,67.27,65.025,67.205,6.6076e+06
EOG,1212067800,66.785,66.785,63.69,63.9,8.1262e+06
EOG,1212154200,64.035,65.155,62.87,64.315,1.01412e+07
EOG,1212413400,63.95,65.155,62.955,63.67,8.5108e+06
EOG,1212499800,63.36,64.425,61.87,62.035,9.2176e+06
EOG,1212586200,61.575,63.3,61.305,62.045,7.362e+06
EOG,1212672600,62.425,65.645,62.42,65.645,9.2768e+06
EOG,1212759000,66.14,68.625,64.405,64.405,8.5418e+06
EOG,1213018200,64.875,66.855,64.485,65.945,6.1952e+06
EOG,1213104600,66.05,66.24,63.125,64.23,6.7934e+06
EOG,1213191000,64.9,65.23,63.28,64.195,5.7554e+06
EOG,1213277400,65.25,65.495,63.92,64.29,7.6052e+06
EOG,1213363800,63.69,65.48,63.3,65.155,5.4758e+06
EOG,1213623000,65.62,66.43,64.205,64.715,5.533e+06
EOG,1213709400,65.025,66.315,64.495,66.005,6.102e+06
EOG,1213795800,65.795,66.69,64.73,66.515,5.2736e+06
EOG,1213882200,67.46,67.55,65.1,65.15,7.1756e+06
EOG,1213968600,65.745,66.64,64.615,65.205,7.2266e+06
EOG,1214227800,65.205,67.785,64.7,67.77,6.8678e+06
EOG,1214314200,67.495,67.495,65.185,65.225,5.6476e+06
EOG,1214400600,65.47,65.475,62.385,63.92,5.142e+06
EOG,1214487000,63.64,64.92,62.845,63.095,7.803e+06
EOG,1214573400,63.935,65.465,63.06,65.095,8.6194e+06
EOG,1214832600,65.935,66.995,65.415,65.6,6.4026e+06
EOG,1214919000,65.765,66.525,65,65.77,6.2094e+06
EOG,1215005400,66.125,66.945,62.255,62.285,6.9688e+06
EOG,1215091800,62.255,63,59.87,60.355,6.9234e+06
EOG,1215437400,59.485,60.255,57.245,57.73,8.9258e+06
EOG,1215523800,56.995,58.94,55.06,58.67,1.2393e+07
EOG,1215610200,59.25,59.815,55.585,55.595,7.4686e+06
EOG,1215696600,55.715,58.335,55.715,58.245,6.4512e+06
EOG,1215783000,58.625,59.69,57.855,59.28,8.6388e+06
EOG,1216042200,59.97,60.275,58.36,59.52,5.7988e+06
EOG,1216128600,58.8,59.985,55.74,55.74,8.5906e+06
EOG,1216215000,55.215,55.71,52.915,54.22,1.08392e+07
EOG,1216301400,54.685,55.715,50.915,52.31,1.22626e+07
EOG,1216387800,52.5,54.65,52.035,53.195,6.8146e+06
EOG,1216647000,54,55.05,52.68,54.515,6.6664e+06
EOG,1216733400,53.965,54.63,51.825,53.215,1.01874e+07
EOG,1216819800,53.125,53.835,51.01,51.51,9.4188e+06
EOG,1216906200,52.2,53.01,49.355,50.59,1.14924e+07
EOG,1216992600,51.36,52.995,50.46,52.025,7.6664e+06
EOG,1217251800,52.18,53.495,50.935,50.94,6.589e+06
EOG,1217338200,50.38,51.085,49.06,50.005,1.03976e+07
EOG,1217424600,49.16,52.665,49,52.575,1.01144e+07
EOG,1217511000,53.82,53.82,50.08,50.265,8.9176e+06
EOG,1217597400,50.815,52.34,49.9,50.245,7.6218e+06
EOG,1217856600,49.9,50.105,46.245,46.64,8.4856e+06
EOG,1217943000,47,47.5,45.53,47.4,1.08086e+07
EOG,1218029400,47.655,49.125,47.08,48.99,8.3804e+06
EOG,1218115800,49.04,49.895,47.695,47.815,1.0104e+07
EOG,1218202200,46.655,47.53,46.365,46.93,7.0112e+06
EOG,1218461400,47.665,48.01,46.025,47.68,6.465e+06
EOG,1218547800,48.02,49.55,47.6,47.65,8.5468e+06
EOG,1218634200,47.545,50.01,47.53,49.79,5.8452e+06
EOG,1218720600,50.235,50.235,47.925,48.525,7.0234e+06
EOG,1218807000,47.82,48.165,46.965,47.8,5.7586e+06
EOG,1219066200,48.025,48.75,47.17,47.37,6.1524e+06
EOG,1219152600,47.185,50.125,47.185,49.94,8.3322e+06
EOG,1219239000,51.12,52.995,50.84,52.8,1.05578e+07
EOG,1219325400,54.405,54.405,52.235,53.155,6.7946e+06
EOG,1219411800,53.09,53.09,50.8,51.82,5.172e+06
EOG,1219671000,51.695,52.14,50.415,51.105,4.9418e+06
EOG,1219757400,52.445,54.435,52.445,53.88,9.4098e+06
EOG,1219843800,54.845,55.77,54.02,54.585,5.6588e+06
EOG,1219930200,55.73,55.73,51.545,52.67,7.2734e+06
EOG,1220016600,53.495,53.5,51.88,52.21,5.6876e+06
EOG,1220362200,49.46,51.11,47.55,47.955,9.0664e+06
EOG,1220448600,47.765,48.595,45.8,47.055,1.02708e+07
EOG,1220535000,46.995,47.925,45.025,46.725,9.7388e+06
EOG,1220621400,47.47,48.185,46.045,47.89,9.7914e+06
EOG,1220880600,48.985,48.995,45.725,46.145,1.10806e+07
EOG,1220967000,45.34,45.78,42.175,42.195,1.1614e+07
EOG,1221053400,42.51,44.95,42.51,43.91,1.5704e+07
EOG,1221139800,43.81,44.68,41.695,44.285,1.13554e+07
EOG,1221226200,44.005,45.705,44.005,45.41,8.0024e+06
EOG,1221485400,42.535,44.61,42.09,42.675,1.25688e+07
EOG,1221571800,42.015,43.63,40.06,43.54,1.23544e+07
EOG,1221658200,43.565,45.86,42.015,44.405,1.56364e+07
EOG,1221744600,45.495,47.425,43.755,46.255,1.14364e+07
EOG,1221831000,48.79,50.75,47,48.5,1.10284e+07
EOG,1222090200,48.62,50.21,47.61,47.84,7.1584e+06
EOG,1222176600,47.005,49.93,46.925,47.575,9.694e+06
EOG,1222263000,48.375,48.865,47.135,47.38,5.8184e+06
EOG,1222349400,47.005,48.885,46.445,48.44,5.7914e+06
EOG,1222435800,47.035,47.9,44.91,47.26,5.8714e+06
EOG,1222695000,45.5,45.5,39.9,42.41,1.0754e+07
EOG,1222781400,43.34,45.375,42.99,44.73,7.0516e+06
EOG,1222867800,44.045,45.4,41.57,44.87,8.002e+06
EOG,1222954200,44.32,44.32,39.23,39.305,9.7998e+06
EOG,1223040600,39.44,43.125,39.015,39.97,8.9296e+06
EOG,1223299800,37.5,38.22,33.595,37.875,1.64396e+07
EOG,1223386200,38.485,39.23,35.58,35.58,1.23504e+07
EOG,1223472600,33.975,37.305,32.955,35.815,1.47902e+07
EOG,1223559000,36.54,36.875,32.18,32.18,1.05138e+07
EOG,1223645400,30.8,32.345,27.21,29.795,1.78516e+07
EOG,1223904600,31.015,35.99,30.895,35.875,1.141e+07
EOG,1223991000,36.96,39.12,34.06,35.47,1.4933e+07
EOG,1224077400,34.225,34.225,30.02,30.585,1.34858e+07
EOG,1224163800,31.44,35.105,29.925,34.55,1.55492e+07
EOG,1224250200,33.72,38.525,32.75,34.47,1.47208e+07
EOG,1224509400,35.83,38.05,35.23,37.52,1.2704e+07
EOG,1224595800,36.43,37.72,34.75,36.18,1.0182e+07
EOG,1224682200,34.54,34.735,31.705,33.015,7.4684e+06
EOG,1224768600,33.68,34.335,30.305,33.155,9.9988e+06
EOG,1224855000,30.63,33.755,28.78,32.935,9.1754e+06
EOG,1225114200,32.075,34.335,31.14,31.495,7.5768e+06
EOG,1225200600,32.285,34.045,29.985,33.765,8.8102e+06
EOG,1225287000,34.735,38.235,34.04,36.29,1.18764e+07
EOG,1225373400,36.98,38.815,35.95,38.485,8.6258e+06
EOG,1225459800,37.65,41.315,36.505,40.46,8.335e+06
EOG,1225722600,38.915,39.83,37.175,37.89,8.118e+06
EOG,1225809000,39.38,42.75,38.78,42.08,9.9182e+06
EOG,1225895400,41.065,42.475,40.135,40.905,7.8848e+06
EOG,1225981800,39.43,40.31,37.52,38.585,8.6428e+06
EOG,1226068200,39.02,41.16,38.495,39.94,7.0018e+06
EOG,1226327400,41.07,42.485,39.42,40.55,7.057e+06
EOG,1226413800,39.46,40.575,38.295,39.41,7.9996e+06
EOG,1226500200,38.5,39.34,37.645,38.085,1.1027e+07
EOG,1226586600,38.29,42.94,36.365,42.485,1.6621e+07
EOG,1226673000,41.635,42.915,39.98,40.315,1.11162e+07
EOG,1226932200,40.09,42.22,39.57,40.225,8.6948e+06
EOG,1227018600,40.57,42.04,39.085,41.265,8.401e+06
EOG,1227105000,41.765,42.08,38.215,38.64,9.9642e+06
EOG,1227191400,37.61,38.09,32,32.485,1.35524e+07
EOG,1227277800,33.44,37.695,32.595,37.355,1.43292e+07
EOG,1227537000,38.77,43.085,37.785,41.82,1.086e+07
EOG,1227623400,42.095,42.715,40.67,42.01,9.9414e+06
EOG,1227709800,40.64,44.44,40.425,44.235,1.05188e+07
EOG,1227882600,43.205,43.735,41.075,42.51,3.535e+06
EOG,1228141800,40.755,41.4,37.815,38.05,1.05184e+07
EOG,1228228200,39.25,40.16,37.885,40.01,9.1996e+06
EOG,1228314600,39.095,40.975,38.79,39.995,7.5778e+06
EOG,1228401000,38.91,39.26,33.755,34.395,1.28416e+07
EOG,1228487400,33.5,34.155,31.405,33.97,1.17952e+07
EOG,1228746600,35.29,36.485,33.66,34.535,1.13586e+07
EOG,1228833000,34.05,36.685,33.145,35.2,8.8708e+06
EOG,1228919400,35.94,37.96,35.775,36.835,9.9816e+06
EOG,1229005800,37.49,39.205,35.71,36.03,8.2932e+06
EOG,1229092200,34.365,34.875,33.38,33.985,8.4444e+06
EOG,1229351400,35.02,35.825,33.715,34.57,7.9804e+06
EOG,1229437800,35.34,35.67,34.38,35.505,5.6592e+06
EOG,1229524200,35.4,36.34,34.66,34.8,7.3716e+06
EOG,1229610600,34.575,34.93,32.13,32.42,7.795e+06
EOG,1229697000,32.445,33.37,31.99,32.48,9.103e+06
EOG,1229956200,32.365,32.45,29.945,30.58,6.0162e+06
EOG,1230042600,30.68,32.295,30.54,31.665,6.4318e+06
EOG,1230129000,30.825,31.5,30.645,31.43,2.4994e+06
EOG,1230301800,31.515,32.295,31.51,32.135,2.4144e+06
EOG,1230561000,32.845,33.25,32.17,33.07,4.1384e+06
EOG,1230647400,32.93,32.985,31.925,32.91,4.9416e+06
EOG,1230733800,32.46,33.88,32.32,33.29,4.5648e+06
EOG,1230906600,33.97,35.45,33.465,35.195,5.1126e+06
EOG,1231165800,35.09,36.415,34.515,35.335,7.7112e+06
EOG,1231252200,35.765,36.195,35.26,35.56,1.083e+07
EOG,1231338600,35.09,35.345,33.275,34.335,6.7922e+06
EOG,1231425000,34.825,35.165,33.87,34.805,6.005e+06
EOG,1231511400,34.775,35.325,33.085,33.27,6.936e+06
EOG,1231770600,32.73,33.03,31.27,31.785,6.9228e+06
EOG,1231857000,31.78,33.865,31.45,33.54,9.307e+06
EOG,1231943400,32.8,33.155,31.36,31.695,8.783e+06
EOG,1232029800,31.625,32.325,30.725,32.01,9.9868e+06
EOG,1232116200,32.545,32.74,31,31.865,7.6148e+06
EOG,1232461800,31.33,32.44,30.145,30.365,8.4468e+06
EOG,1232548200,30.56,32.795,30.46,32.66,8.0176e+06
EOG,1232634600,31.44,32.69,31.005,31.86,6.7602e+06
EOG,1232721000,31.22,33.815,30.705,33.285,8.2484e+06
EOG,1232980200,33.85,34.97,33.515,34,7.2796e+06
EOG,1233066600,33.795,33.935,33.02,33.33,6.7384e+06
EOG,1233153000,34,35.085,33.42,34.98,8.2818e+06
EOG,1233239400,34.185,34.925,34.005,34.285,8.785e+06
EOG,1233325800,35,35.38,33.645,33.885,8.4036e+06
EOG,1233585000,33.18,33.975,33.005,33.37,9.8164e+06
EOG,1233671400,33.785,34.15,33.145,33.945,8.875e+06
EOG,1233757800,34.34,35.03,33.97,34.29,9.6032e+06
EOG,1233844200,34.185,35.065,33.5,34.545,9.8204e+06
EOG,1233930600,33.81,34.655,33.22,34.205,8.489e+06
EOG,1234189800,34.63,35.58,34.125,35.37,8.0338e+06
EOG,1234276200,35.475,35.86,32.895,33.2,8.0972e+06
EOG,1234362600,33.8,33.855,31.675,32.18,7.8162e+06
EOG,1234449000,31.58,32.325,31.175,32.05,6.96e+06
EOG,1234535400,32.3,32.655,31.655,31.86,6.914e+06
EOG,1234881000,30.995,30.995,28.03,28.12,1.2656e+07
EOG,1234967400,28.42,28.535,27.5,28.31,1.18106e+07
EOG,1235053800,28.5,28.96,27.59,27.91,1.05914e+07
EOG,1235140200,27.305,28.11,27.085,27.555,9.7562e+06
EOG,1235399400,27.995,28.18,25.425,25.49,1.05962e+07
EOG,1235485800,25.735,26.705,25.475,26.665,8.17e+06
EOG,1235572200,26.615,26.77,25.57,26.015,8.8208e+06
EOG,1235658600,26.435,26.78,25.575,25.705,6.5632e+06
EOG,1235745000,25.03,25.815,24.43,25.02,7.7056e+06
EOG,1236004200,24.135,24.845,22.515,22.795,1.11706e+07
EOG,1236090600,23.255,24.85,22.765,24.02,1.561e+07
EOG,1236177000,24.73,26.395,24.62,25.55,1.51708e+07
EOG,1236263400,25.165,26.42,24.785,25.92,1.5736e+07
EOG,1236349800,26.625,27.18,25.11,26.035,1.17334e+07
EOG,1236605400,25.615,26.26,24.99,25.21,8.6422e+06
EOG,1236691800,25.785,27,25.64,26.455,9.0706e+06
EOG,1236778200,26.655,27.355,26.25,27,7.7002e+06
EOG,1236864600,27.135,29.55,26.83,29.405,1.40708e+07
EOG,1236951000,29.375,29.72,28.875,29.495,8.9866e+06
EOG,1237210200,29.3,31.485,29.3,30.76,9.112e+06
EOG,1237296600,30.73,31.55,30.185,31.55,1.07864e+07
EOG,1237383000,31.225,31.395,29.255,31.005,1.24944e+07
EOG,1237469400,31.815,32.73,31.55,31.62,8.8302e+06
EOG,1237555800,32.105,32.5,30.64,30.975,8.4938e+06
EOG,1237815000,31.82,33.325,31.715,33.04,7.1876e+06
EOG,1237901400,32.45,32.74,31.64,32.04,4.6562e+06
EOG,1237987800,31.9,32.945,30.75,31.72,7.7714e+06
EOG,1238074200,32.04,32.595,30.76,30.995,7.6008e+06
EOG,1238160600,30.47,30.54,29.415,29.655,5.949e+06
EOG,1238419800,28.835,29.24,27.68,28.33,6.0698e+06
EOG,1238506200,28.595,29.2,27.305,27.38,8.2102e+06
EOG,1238592600,26.88,28.705,26.545,28.565,7.4746e+06
EOG,1238679000,29.335,30.7,29.33,30.165,7.3264e+06
EOG,1238765400,30.16,32.16,29.97,31.57,6.802e+06
EOG,1239024600,31.035,31.04,29.815,30.35,5.0476e+06
EOG,1239111000,29.67,29.885,28.79,28.985,3.9694e+06
EOG,1239197400,28.645,29.745,27.89,29.525,5.8652e+06
EOG,1239283800,30.51,31.025,29.835,30.675,5.2878e+06
EOG,1239629400,30.215,31.385,29.375,30.985,6.5828e+06
EOG,1239715800,30.92,31.295,30.125,30.26,7.1668e+06
EOG,1239802200,30,30.775,29.225,29.62,6.477e+06
EOG,1239888600,30.1,30.15,28.7,29.29,7.11e+06
EOG,1239975000,28.9,30.335,28.665,30.04,8.545e+06
EOG,1240234200,29.26,29.35,27.925,27.985,6.8788e+06
EOG,1240320600,27.8,28.52,27.43,28.455,6.9354e+06
EOG,1240407000,28.37,28.9,27.87,28.18,6.562e+06
EOG,1240493400,28.5,30.2,28.37,30.06,9.7076e+06
EOG,1240579800,31.3,32.08,30.84,31.585,1.01788e+07
EOG,1240839000,30.73,31.505,30.23,31.21,5.5786e+06
EOG,1240925400,30.77,32,30.565,31.695,7.3246e+06
EOG,1241011800,31.68,33.465,31.61,32.87,7.4986e+06
EOG,1241098200,33.035,33.32,31.24,31.74,8.0862e+06
EOG,1241184600,31.755,33.325,31.64,33.04,7.522e+06
EOG,1241443800,33.155,36.08,33.14,36.02,9.3722e+06
EOG,1241530200,35.85,36.115,34.505,35.505,7.6436e+06
EOG,1241616600,36.43,38.825,36.14,38.765,1.38528e+07
EOG,1241703000,38.915,39.56,36.23,36.76,1.37618e+07
EOG,1241789400,37.445,38.785,37.17,38.435,8.6988e+06
EOG,1242048600,37.665,37.745,36.435,36.865,7.3742e+06
EOG,1242135000,37.48,37.485,35.48,36.625,8.6958e+06
EOG,1242221400,35.65,36.29,34.59,35.16,6.814e+06
EOG,1242307800,35.16,35.965,34.59,35.68,4.8988e+06
EOG,1242394200,35.46,35.905,33.75,34.125,7.2742e+06
EOG,1242653400,34.575,35.985,34.575,35.525,6.7656e+06
EOG,1242739800,35.595,36.555,35.375,36.01,5.4208e+06
EOG,1242826200,36.38,37.41,36.09,36.22,5.4434e+06
EOG,1242912600,35.64,35.64,34.415,34.875,6.6442e+06
EOG,1242999000,35.145,35.365,34.48,34.595,3.5972e+06
EOG,1243344600,33.12,34.74,32.74,34.635,7.306e+06
EOG,1243431000,34.735,35.175,33.945,34.135,8.4356e+06
EOG,1243517400,34.56,36.785,34.39,36.305,9.0632e+06
EOG,1243603800,36.735,36.945,36.075,36.595,5.9546e+06
EOG,1243863000,37.37,38.73,37.365,38.36,6.5462e+06
EOG,1243949400,38,38.275,37.04,38.105,8.4308e+06
EOG,1244035800,37.415,37.415,35.64,36.285,7.541e+06
EOG,1244122200,36.75,37.12,35.87,36.605,7.0554e+06
EOG,1244208600,37.245,37.42,36.135,36.755,8.2794e+06
EOG,1244467800,35.885,37.05,35.885,36.85,6.744e+06
EOG,1244554200,37.065,37.77,36.74,37.325,6.586e+06
EOG,1244640600,37.78,37.85,36.78,37.625,7.3e+06
EOG,1244727000,37.745,39.255,37.575,38.545,8.2082e+06
EOG,1244813400,38.265,38.88,37.795,38.81,5.9268e+06
EOG,1245072600,38.115,38.715,37.235,38.125,8.5994e+06
EOG,1245159000,38.41,38.5,36.62,36.93,6.918e+06
EOG,1245245400,37.04,37.27,35.85,36.625,5.6394e+06
EOG,1245331800,36.61,37.05,35.81,36.05,5.2518e+06
EOG,1245418200,36.44,36.44,34.605,34.96,1.33398e+07
EOG,1245677400,34.425,34.425,33.26,33.74,1.06402e+07
EOG,1245763800,33.875,33.875,32.85,33.645,9.4196e+06
EOG,1245850200,33.755,34.135,33.35,33.66,8.6242e+06
EOG,1245936600,33.81,34.5,33.68,34.315,7.3328e+06
EOG,1246023000,34.155,34.595,33.75,33.78,1.1535e+07
EOG,1246282200,33.955,34.385,33.365,33.48,8.4776e+06
EOG,1246368600,33.385,34.25,33.23,33.96,9.122e+06
EOG,1246455000,34.37,34.875,33.475,33.52,7.2718e+06
EOG,1246541400,32.825,32.89,31.915,32.115,7.0928e+06
EOG,1246887000,31.05,31.455,30.74,31.315,8.7202e+06
EOG,1246973400,31.395,31.395,30.225,30.29,9.2024e+06
EOG,1247059800,30.32,31.16,30.145,30.885,1.04278e+07
EOG,1247146200,31.145,31.5,30.695,31.31,8.2034e+06
EOG,1247232600,30.77,31.475,30.49,31.25,6.3756e+06
EOG,1247491800,31.225,31.92,30.68,31.915,6.0192e+06
EOG,1247578200,32.265,32.535,31.81,32.335,5.7282e+06
EOG,1247664600,32.685,33.4,32.53,33.24,7.921e+06
EOG,1247751000,32.94,34.86,32.9,34.625,7.2334e+06
EOG,1247837400,34.32,35.215,34.175,34.795,5.7984e+06
EOG,1248096600,35.23,36.23,35.23,36.15,6.3528e+06
EOG,1248183000,36.57,36.685,35.54,36.295,4.38e+06
EOG,1248269400,36.105,36.25,35.515,35.7,5.029e+06
EOG,1248355800,35.7,36.995,35.605,36.905,5.7344e+06
EOG,1248442200,36.755,37.385,36.655,37.345,4.2812e+06
EOG,1248701400,37.425,37.48,37,37.15,5.0694e+06
EOG,1248787800,36.665,37.075,35.76,36.72,4.4188e+06
EOG,1248874200,36.155,36.155,35.055,35.45,4.4268e+06
EOG,1248960600,36.225,36.83,35.45,36.45,6.087e+06
EOG,1249047000,36.225,37.475,35.93,37.015,5.0116e+06
EOG,1249306200,37.6,38.845,37.6,38.325,5.601e+06
EOG,1249392600,38.04,38.755,37.615,38.725,5.036e+06
EOG,1249479000,38.77,39.065,38.065,39.01,6.1352e+06
EOG,1249565400,39.395,39.805,38.485,39.11,5.7008e+06
EOG,1249651800,39.295,39.825,37.255,37.365,8.9594e+06
EOG,1249911000,37.31,38.49,37.31,38.1,6.4536e+06
EOG,1249997400,37.845,37.985,36.825,36.88,4.027e+06
EOG,1250083800,36.675,37.53,36.675,37.095,4.1526e+06
EOG,1250170200,37.14,37.88,37.13,37.785,3.5438e+06
EOG,1250256600,37.795,37.895,36.95,37.345,4.664e+06
EOG,1250515800,36.67,36.67,35.51,35.92,4.1094e+06
EOG,1250602200,35.89,36.395,35.62,36.165,3.3034e+06
EOG,1250688600,35.88,37.285,35.545,36.91,3.6806e+06
EOG,1250775000,36.94,37.4,36.695,36.78,4.5552e+06
EOG,1250861400,37.075,38.17,37.07,37.895,4.3606e+06
EOG,1251120600,38.28,38.46,37.665,37.915,2.7306e+06
EOG,1251207000,38.085,38.435,37.1,37.205,3.8136e+06
EOG,1251293400,36.875,37.135,36.325,36.99,3.6056e+06
EOG,1251379800,36.625,36.825,35.985,36.48,5.2356e+06
EOG,1251466200,36.95,37.205,36.24,36.625,3.2654e+06
EOG,1251725400,35.875,36.055,35.575,36,3.6918e+06
EOG,1251811800,35.87,36.43,35.155,35.31,5.0498e+06
EOG,1251898200,35.325,35.495,34.92,34.96,4.7712e+06
EOG,1251984600,35.395,35.395,34.715,34.88,4.554e+06
EOG,1252071000,34.725,35.315,34.315,35.235,4.6326e+06
EOG,1252416600,36.24,37.23,36.125,36.82,9.5074e+06
EOG,1252503000,36.91,37.505,36.445,37.22,5.03e+06
EOG,1252589400,37.23,38.5,36.94,38.41,5.8446e+06
EOG,1252675800,38.59,39.15,37.79,37.975,6.9046e+06
EOG,1252935000,37.615,38.61,37.44,38.545,4.197e+06
EOG,1253021400,38.79,40.085,38.685,39.93,6.9618e+06
EOG,1253107800,40.26,41.64,39.88,41.615,6.3682e+06
EOG,1253194200,41.52,42.14,40.97,41.285,6.7294e+06
EOG,1253280600,41.555,41.62,40.42,40.93,4.4788e+06
EOG,1253539800,40.155,40.74,39.755,40.64,4.089e+06
EOG,1253626200,41.205,42.215,41.015,42.015,5.6824e+06
EOG,1253712600,42.015,42.205,41.035,41.105,5.0246e+06
EOG,1253799000,41.025,41.135,39.325,40.025,5.9064e+06
EOG,1253885400,39.93,40.5,39.23,39.47,4.3904e+06
EOG,1254144600,39.675,40.105,39.435,40.065,2.6368e+06
EOG,1254231000,40,40.925,39.455,40.82,6.4192e+06
EOG,1254317400,41.16,42.18,40.64,41.755,9.5416e+06
EOG,1254403800,41.79,41.79,40.455,40.525,9.2744e+06
EOG,1254490200,39.865,40.65,39.685,40.38,7.5478e+06
EOG,1254749400,40.375,41.5,40.11,41.255,6.4302e+06
EOG,1254835800,41.825,42.34,41.43,42.29,5.6356e+06
EOG,1254922200,42.215,42.5,41.44,42.355,5.3696e+06
EOG,1255008600,42.62,44.955,42.455,44.845,9.1086e+06
EOG,1255095000,44.585,45.49,44.165,44.8,7.4444e+06
EOG,1255354200,45.53,45.845,45.03,45.29,5.0852e+06
EOG,1255440600,45.315,45.315,43.95,44.815,7.2428e+06
EOG,1255527000,45.51,45.825,44.875,45.72,5.4996e+06
EOG,1255613400,45.43,46.675,45.36,46.57,6.2468e+06
EOG,1255699800,46.46,46.655,45.765,46.405,4.578e+06
EOG,1255959000,46.28,47.265,46.28,47.175,4.7142e+06
EOG,1256045400,47.26,47.5,46.55,47.205,5.4736e+06
EOG,1256131800,46.82,47.93,46.425,46.47,5.7506e+06
EOG,1256218200,45.3,45.815,44.615,45.725,6.4374e+06
EOG,1256304600,46.07,46.17,44.185,44.58,4.6734e+06
EOG,1256563800,44.67,45.78,43.27,43.43,5.9108e+06
EOG,1256650200,43.85,44.295,43.225,43.385,4.3416e+06
EOG,1256736600,43.04,43.405,41.935,42.135,6.1082e+06
EOG,1256823000,42.575,43.085,42.135,42.92,8.2794e+06
EOG,1256909400,42.905,42.905,40.44,40.83,6.8726e+06
EOG,1257172200,40.87,41.655,40.185,40.985,5.542e+06
EOG,1257258600,40.575,41.715,40.335,41.5,4.7202e+06
EOG,1257345000,42.365,43.575,42.225,42.65,8.6136e+06
EOG,1257431400,42.92,44.02,42.16,44.015,6.5406e+06
EOG,1257517800,45.215,46.14,44.7,45.175,9.251e+06
EOG,1257777000,45.005,46.29,45.005,46.2,6.071e+06
EOG,1257863400,46.055,46.33,44.96,45.59,6.0992e+06
EOG,1257949800,45.98,46.24,44.955,45.125,6e+06
EOG,1258036200,44.97,45.275,43.7,44.43,5.8896e+06
EOG,1258122600,44.335,44.95,44.03,44.25,5.9754e+06
EOG,1258381800,45.145,45.45,44.645,45.265,1.01382e+07
EOG,1258468200,45.065,45.08,44.375,44.99,3.5632e+06
EOG,1258554600,45.14,45.145,43.845,44.37,4.376e+06
EOG,1258641000,43.99,43.99,42.865,43.46,5.0074e+06
EOG,1258727400,43.135,43.365,42.595,43.235,6.4378e+06
EOG,1258986600,44.15,44.74,43.885,44.09,5.3656e+06
EOG,1259073000,44.18,44.36,43.505,44.275,6.2928e+06
EOG,1259159400,44.355,45.03,43.955,44.855,4.2732e+06
EOG,1259332200,43.205,43.91,42.7,43.615,1.805e+06
EOG,1259591400,43.1,43.795,42.74,43.245,5.814e+06
EOG,1259677800,43.805,44.715,43.715,44.145,4.465e+06
EOG,1259764200,44.07,44.325,43.28,43.545,2.879e+06
EOG,1259850600,43.485,43.95,43.09,43.43,6.4978e+06
EOG,1259937000,44.115,45.115,42.845,43.535,6.6882e+06
EOG,1260196200,43.39,44.415,43.02,43.635,4.4166e+06
EOG,1260282600,43.415,43.455,42.475,42.625,4.475e+06
EOG,1260369000,42.87,43.23,42,42.845,4.5466e+06
EOG,1260455400,42.8,43.765,42.795,43.335,4.778e+06
EOG,1260541800,43.505,43.685,42.93,43.025,4.2624e+06
EOG,1260801000,45.085,45.945,44.95,45.195,1.32616e+07
EOG,1260887400,45.005,46.035,45.005,45.9,8.1948e+06
EOG,1260973800,46.115,47.16,46.005,46.655,5.7226e+06
EOG,1261060200,46.605,47.315,45.72,46.265,5.0296e+06
EOG,1261146600,46.76,47.05,46.125,46.475,5.6748e+06
EOG,1261405800,46.915,47.62,46.915,47.345,4.4674e+06
EOG,1261492200,47.785,48.98,47.505,48.885,4.4802e+06
EOG,1261578600,48.895,49.97,48.84,49.945,5.675e+06
EOG,1261665000,49.99,50.725,49.76,50.29,2.0392e+06
EOG,1262010600,50.88,50.88,49.765,49.965,3.0032e+06
EOG,1262097000,50.085,50.36,49.21,49.635,3.9548e+06
EOG,1262183400,49.64,49.855,49.22,49.405,2.1698e+06
EOG,1262269800,49.41,49.875,48.65,48.65,1.9994e+06
EOG,1262615400,49.675,50.22,49.62,50.19,4.11e+06
EOG,1262701800,49.505,50,48.895,49.575,4.45e+06
EOG,1262788200,49.42,49.845,48.835,49.74,3.6504e+06
EOG,1262874600,49.445,49.525,48.72,49.275,4.4968e+06
EOG,1262961000,48.865,49.645,48.145,49.525,5.9114e+06
EOG,1263220200,49.79,49.905,48.51,49.07,3.0308e+06
EOG,1263306600,47.88,48.55,47.58,47.71,4.477e+06
EOG,1263393000,47.59,49.08,47.025,48.88,4.3036e+06
EOG,1263479400,48.84,49.355,48.725,49,3.1758e+06
EOG,1263565800,49,49.445,48.345,48.435,5.931e+06
EOG,1263911400,48.16,48.795,48.035,48.675,4.4122e+06
EOG,1263997800,47.91,48.265,47.625,48.165,4.0496e+06
EOG,1264084200,48.285,48.785,47.65,48.295,6.3864e+06
EOG,1264170600,48.135,48.595,46.885,47.025,5.8382e+06
EOG,1264429800,47.43,48.07,47.31,47.485,2.7964e+06
EOG,1264516200,46.98,47.535,46.22,46.57,3.9368e+06
EOG,1264602600,46.115,46.91,45.05,46.195,6.5544e+06
EOG,1264689000,46.505,46.67,44.785,45.755,5.4428e+06
EOG,1264775400,45.885,47.015,44.685,45.21,6.3514e+06
EOG,1265034600,45.63,47.83,45.625,47.775,4.4568e+06
EOG,1265121000,47.92,48.61,47.13,48.515,3.7762e+06
EOG,1265207400,48.08,49.11,48.03,48.6,4.2812e+06
EOG,1265293800,47.885,48.02,46.39,46.45,4.8532e+06
EOG,1265380200,46.45,46.69,45.01,46.43,5.9786e+06
EOG,1265639400,46.27,46.875,45.445,45.79,4.2606e+06
EOG,1265725800,46.515,47.65,46.19,47.27,5.3278e+06
EOG,1265812200,45.315,45.495,43.39,44.12,1.59796e+07
EOG,1265898600,43.96,45.575,43.885,45.53,7.1564e+06
EOG,1265985000,44.74,45.62,44.3,45.49,5.837e+06
EOG,1266330600,46.325,46.935,46.135,46.41,5.3964e+06
EOG,1266417000,46.55,46.635,46.095,46.43,4.3106e+06
EOG,1266503400,46.21,47.41,46.055,47.17,4.9836e+06
EOG,1266589800,46.935,47.52,46.495,47.32,3.8412e+06
EOG,1266849000,47.61,47.61,45.9,46.055,3.7934e+06
EOG,1266935400,45.7,45.975,44.8,44.955,4.3e+06
EOG,1267021800,45.705,46.49,45.41,46.34,5.4054e+06
EOG,1267108200,45.33,46.665,44.975,46.61,3.9988e+06
EOG,1267194600,46.77,47.19,46.2,47.025,3.5102e+06
EOG,1267453800,47.235,47.775,47.115,47.325,4.0784e+06
EOG,1267540200,47.58,48.045,47.26,47.415,3.8156e+06
EOG,1267626600,47.73,48.16,47.39,47.91,4.7386e+06
EOG,1267713000,48.02,48.47,47.415,47.6,4.8888e+06
EOG,1267799400,47.975,48.735,47.63,48.69,5.5202e+06
EOG,1268058600,48.57,49.11,48.5,48.685,4.4798e+06
EOG,1268145000,48.26,49.64,48.26,49.025,5.1168e+06
EOG,1268231400,48.945,49.69,48.71,49.42,4.0334e+06
EOG,1268317800,49.31,49.595,48.69,48.89,4.5802e+06
EOG,1268404200,49.42,49.465,48.535,48.79,2.1144e+06
EOG,1268659800,48.66,48.745,47.68,48.445,3.5616e+06
EOG,1268746200,48.745,48.745,47.985,48.24,3.6216e+06
EOG,1268832600,48.385,48.77,47.625,47.905,5.7424e+06
EOG,1268919000,48.025,48.195,46.175,46.64,6.3402e+06
EOG,1269005400,45.85,47.18,45.17,45.85,8.4164e+06
EOG,1269264600,45.38,46.315,44.795,45.75,6.1306e+06
EOG,1269351000,45.865,47.125,45.755,47.07,5.5948e+06
EOG,1269437400,46.575,47.225,46.05,46.285,4.1178e+06
EOG,1269523800,46.645,46.955,44.56,44.71,6.8032e+06
EOG,1269610200,44.835,44.835,43.765,44.795,7.1816e+06
EOG,1269869400,45.805,46.545,45.78,46.48,6.1878e+06
EOG,1269955800,46.46,46.845,46.11,46.67,4.4186e+06
EOG,1270042200,46.75,47.005,46.34,46.47,6.3416e+06
EOG,1270128600,47.015,47.805,47.005,47.79,4.8498e+06
EOG,1270474200,48.08,49.065,47.8,48.885,6.4282e+06
EOG,1270560600,48.805,49.305,48.55,48.69,5.3664e+06
EOG,1270647000,50.21,52.62,49.94,51.87,1.64812e+07
EOG,1270733400,51.965,53.89,51.87,53.48,1.40244e+07
EOG,1270819800,53.665,54.095,52.335,52.385,6.304e+06
EOG,1271079000,52.29,53.65,51.955,53.59,6.8232e+06
EOG,1271165400,53.48,54.2,52.585,53.69,7.1858e+06
EOG,1271251800,54.415,54.72,53.655,54.645,5.541e+06
EOG,1271338200,54.69,55.475,54.35,55.25,4.2308e+06
EOG,1271424600,54.78,55.18,53.65,53.735,6.579e+06
EOG,1271683800,53.23,54.2,53.15,53.995,5.2016e+06
EOG,1271770200,54.44,55.835,54.44,55.755,5.4228e+06
EOG,1271856600,55.655,56.11,55.225,55.935,3.977e+06
EOG,1271943000,55.485,56.61,54.93,56.505,4.4894e+06
EOG,1272029400,56.075,56.93,55.535,56.86,5.3128e+06
EOG,1272288600,56.975,57.29,56.075,56.24,4.1692e+06
EOG,1272375000,56.025,56.52,54.175,54.315,4.6692e+06
EOG,1272461400,54.695,55.195,54.035,54.71,4.3512e+06
EOG,1272547800,55.095,55.805,54.595,55.63,4.6832e+06
EOG,1272634200,55.77,57.475,55.28,56.06,7.0722e+06
EOG,1272893400,56.41,57.45,55.52,56.78,5.917e+06
EOG,1272979800,54.675,55.27,52.715,55.12,8.399e+06
EOG,1273066200,54,54.47,52.135,52.585,6.7508e+06
EOG,1273152600,52.2,52.735,48.285,51.185,9.517e+06
EOG,1273239000,50.91,52.28,49.465,50.42,7.4436e+06
EOG,1273498200,51.335,53.885,50.785,53.245,6.3828e+06
EOG,1273584600,52.49,52.705,51.925,52.37,7.7094e+06
EOG,1273671000,52.5,54.37,52.5,54.19,6.906e+06
EOG,1273757400,54.055,55.055,53.8,54.04,5.2142e+06
EOG,1273843800,53.47,53.81,51.705,53.045,3.996e+06
EOG,1274103000,53.08,53.645,50.48,51.615,6.2592e+06
EOG,1274189400,52.495,52.96,51.235,51.42,5.912e+06
EOG,1274275800,51.26,52.115,49.795,51.115,5.389e+06
EOG,1274362200,49.82,49.89,48.015,48.145,5.6766e+06
EOG,1274448600,47.19,50.33,46.64,50.295,8.2704e+06
EOG,1274707800,49.815,50.535,48.63,48.68,5.7246e+06
EOG,1274794200,46.75,49.465,46.715,49.355,6.507e+06
EOG,1274880600,50.01,50.945,49.7,49.87,6.5886e+06
EOG,1274967000,50.985,53.36,50.725,53.255,8.0442e+06
EOG,1275053400,53.015,53.785,51.925,52.42,6.4274e+06
EOG,1275399000,51.795,52.495,50.295,50.415,6.6822e+06
EOG,1275485400,51.05,53.9,50.435,53.875,8.1046e+06
EOG,1275571800,53.735,54.955,52.56,54.865,7.268e+06
EOG,1275658200,53.9,55.295,50.965,51.495,1.26396e+07
EOG,1275917400,51.78,53.1,49.69,50.57,1.02436e+07
EOG,1276003800,51.255,52.895,50.55,52.68,8.2794e+06
EOG,1276090200,53.09,54.27,51.545,51.905,6.417e+06
EOG,1276176600,52.91,54.435,52.91,54.385,6.913e+06
EOG,1276263000,53.995,54.955,53.475,54.93,4.579e+06
EOG,1276522200,55.47,56.08,54.32,54.475,6.2188e+06
EOG,1276608600,55.305,55.515,54.425,55.18,6.0592e+06
EOG,1276695000,54.72,55.71,54.365,55.195,3.497e+06
EOG,1276781400,55.21,55.57,54.26,55.03,5.131e+06
EOG,1276867800,55,55.275,54.49,55.11,6.0536e+06
EOG,1277127000,56,56.95,54.76,55.305,6.072e+06
EOG,1277213400,55.305,55.675,52.905,53.225,6.0038e+06
EOG,1277299800,53.285,53.96,52.63,53.42,5.38e+06
EOG,1277386200,52.91,54.11,51.99,52.295,5.6162e+06
EOG,1277472600,53.12,54.985,52.305,54.89,1.4346e+07
EOG,1277731800,54.47,54.785,52.47,52.71,6.1906e+06
EOG,1277818200,51.665,51.88,49.765,50.12,8.2806e+06
EOG,1277904600,50.13,50.675,49.025,49.185,7.3702e+06
EOG,1277991000,49.26,49.99,47.89,49.54,6.5298e+06
EOG,1278077400,49.345,50.325,48.785,49.17,5.2032e+06
EOG,1278423000,50.17,51.35,49.385,49.925,5.19e+06
EOG,1278509400,50.06,51.91,49.615,51.9,5.4578e+06
EOG,1278595800,52.44,53.4,51.875,53.11,7.0482e+06
EOG,1278682200,52.945,53.445,52.125,52.785,3.7298e+06
EOG,1278941400,52.65,53.3,52.34,52.77,3.2254e+06
EOG,1279027800,53.495,54.16,53.255,53.405,5.2466e+06
EOG,1279114200,53.055,54.235,52.58,53.32,4.2064e+06
EOG,1279200600,53.5,53.5,51.965,53.095,4.2444e+06
EOG,1279287000,52.56,52.765,50.565,51.14,6.2134e+06
EOG,1279546200,51.34,51.76,50.335,51.005,4.6036e+06
EOG,1279632600,50.24,52.245,50.005,52.075,5.7628e+06
EOG,1279719000,52.265,52.32,50.765,51.21,4.824e+06
EOG,1279805400,51.925,52.37,51.385,51.6,4.2206e+06
EOG,1279891800,51.395,51.605,50.295,51.165,4.6722e+06
EOG,1280151000,51.105,52.21,51.105,51.86,3.4202e+06
EOG,1280237400,51.93,51.97,49.555,50.28,6.075e+06
EOG,1280323800,50.465,50.93,50.01,50.28,3.3306e+06
EOG,1280410200,50.865,51.01,49.735,50.29,3.6496e+06
EOG,1280496600,49.79,50.49,48.57,48.75,7.6478e+06
EOG,1280755800,49.655,51.425,49.53,51.255,5.2388e+06
EOG,1280842200,51.15,51.425,50.6,50.85,4.2074e+06
EOG,1280928600,51.03,51.875,50.76,51.5,3.1992e+06
EOG,1281015000,51.125,51.45,50.56,51.22,3.5368e+06
EOG,1281101400,48.225,49.865,47.625,49.63,1.3765e+07
EOG,1281360600,50.085,50.3,49.055,49.97,5.2572e+06
EOG,1281447000,49.4,50.705,49.245,50.35,9.5914e+06
EOG,1281533400,49.295,49.59,48.365,48.575,4.9576e+06
EOG,1281619800,47.695,48.93,47.515,47.68,5.9224e+06
EOG,1281706200,47.655,47.965,46.855,47.085,8.1376e+06
EOG,1281965400,46.745,47.095,46.055,47.045,5.3926e+06
EOG,1282051800,47.535,47.8,46.895,47.58,4.8936e+06
EOG,1282138200,47.385,47.5,45.98,46.675,6.0572e+06
EOG,1282224600,46.495,46.795,45.56,45.76,5.9074e+06
EOG,1282311000,45.63,45.85,45.215,45.71,5.6524e+06
EOG,1282570200,45.815,46.475,45.695,45.865,3.9832e+06
EOG,1282656600,45.15,45.24,43.77,44.305,7.086e+06
EOG,1282743000,43.955,43.99,42.71,43.73,7.512e+06
EOG,1282829400,44.04,44.51,43.09,43.31,4.5856e+06
EOG,1282915800,43.775,44.805,42.9,44.7,4.313e+06
EOG,1283175000,44.62,44.965,43.765,43.78,4.5498e+06
EOG,1283261400,43.575,44.16,42.955,43.435,5.7592e+06
EOG,1283347800,44.14,45.03,43.645,44.97,6.1982e+06
EOG,1283434200,45.04,45.04,44.22,44.745,3.2624e+06
EOG,1283520600,45.165,45.69,44.895,45.165,4.1778e+06
EOG,1283866200,44.63,44.945,44.17,44.355,4.3344e+06
EOG,1283952600,44.36,45.315,44.36,45.135,4.1972e+06
EOG,1284039000,45.72,45.75,44.26,44.685,3.482e+06
EOG,1284125400,44.81,46.28,44.81,46.1,6.0266e+06
EOG,1284384600,46.575,46.575,45.82,46.145,3.1368e+06
EOG,1284471000,45.935,46.57,45.65,46.1,3.0898e+06
EOG,1284557400,45.87,46.075,45.365,45.79,5.5652e+06
EOG,1284643800,46.095,46.35,45.22,45.5,4.9648e+06
EOG,1284730200,45.54,45.54,43.92,44.555,1.41414e+07
EOG,1284989400,44.71,44.935,43.675,43.865,9.5664e+06
EOG,1285075800,44,45.125,43.635,44.81,7.783e+06
EOG,1285162200,44.85,45.465,44.85,45.18,7.3572e+06
EOG,1285248600,44.65,45.39,44.315,44.835,4.3828e+06
EOG,1285335000,45.57,46.435,45.03,46.055,5.4624e+06
EOG,1285594200,46.12,46.485,45.595,45.625,3.1282e+06
EOG,1285680600,45.68,45.99,45.04,45.89,3.5626e+06
EOG,1285767000,45.505,46.97,45.38,46.91,5.6376e+06
EOG,1285853400,47.24,47.425,45.855,46.485,5.9758e+06
EOG,1285939800,47.055,48.295,46.99,48.085,6.0278e+06
EOG,1286199000,47.685,48.425,47.59,47.86,6.2812e+06
EOG,1286285400,48.38,48.88,47.715,48.665,4.2178e+06
EOG,1286371800,48.635,49.715,48.595,49.26,4.7374e+06
EOG,1286458200,49.505,49.535,48.81,49.28,3.866e+06
EOG,1286544600,49.34,49.91,48.985,49.73,3.3558e+06
EOG,1286803800,49.5,50.32,49.395,49.78,2.612e+06
EOG,1286890200,49.44,49.72,48.895,49.455,2.6134e+06
EOG,1286976600,49.855,50.115,49.175,49.375,5.7058e+06
EOG,1287063000,48.935,49.87,48.935,49.505,4.1414e+06
EOG,1287149400,49.85,50.415,49.575,50.02,6.1342e+06
EOG,1287408600,49.935,51.03,49.78,50.665,4.4706e+06
EOG,1287495000,49.89,50.05,49.27,49.74,6.01e+06
EOG,1287581400,49.78,50.41,49.58,50.06,2.8974e+06
EOG,1287667800,50.225,50.84,48.84,49.4,4.2208e+06
EOG,1287754200,49.735,49.74,48.245,48.655,3.9566e+06
EOG,1288013400,49.015,49.46,48.56,48.73,2.6694e+06
EOG,1288099800,48.43,48.84,47.59,47.875,4.025e+06
EOG,1288186200,47.46,47.95,46.83,47.88,3.506e+06
EOG,1288272600,48.195,48.455,47.17,47.47,2.881e+06
EOG,1288359000,47.26,48.015,47.07,47.86,4.0668e+06
EOG,1288618200,48.44,48.955,47.68,48.035,2.844e+06
EOG,1288704600,48.585,49.18,47.93,48.87,4.069e+06
EOG,1288791000,45.245,45.25,43,44.32,3.2201e+07
EOG,1288877400,44.88,44.88,43.155,44.145,1.25238e+07
EOG,1288963800,44.33,44.43,43.5,44.305,7.2782e+06
EOG,1289226600,44.605,45.67,44.375,44.73,9.3348e+06
EOG,1289313000,45.07,46.405,44.93,45.995,8.864e+06
EOG,1289399400,46.205,47.045,46.035,46.94,5.6302e+06
EOG,1289485800,46.61,47.5,46.61,47.055,4.416e+06
EOG,1289572200,46.555,46.725,45.615,46.025,4.7098e+06
EOG,1289831400,46.75,47.11,46.04,46.215,4.2648e+06
EOG,1289917800,45.71,45.71,44.8,45.525,5.2322e+06
EOG,1290004200,45.64,45.96,44.99,45.085,4.0362e+06
EOG,1290090600,45.255,46.36,45.025,46.055,4.8514e+06
EOG,1290177000,45.825,46.535,45.57,46.48,4.4204e+06
EOG,1290436200,46.345,46.815,45.49,46.25,2.544e+06
EOG,1290522600,45.575,45.6,44.25,44.35,5.8996e+06
EOG,1290609000,44.65,45.025,44.27,44.9,3.5128e+06
EOG,1290781800,44.485,44.9,44.42,44.46,924000
EOG,1291041000,44.32,44.815,43.805,44.61,3.6002e+06
EOG,1291127400,44.21,44.935,44.005,44.475,4.4564e+06
EOG,1291213800,45.245,45.86,44.78,45.815,4.8112e+06
EOG,1291300200,45.765,46.995,45.765,46.93,3.9732e+06
EOG,1291386600,46.73,47,46.39,46.87,3.3378e+06
EOG,1291645800,46.775,47.35,46.755,47.19,2.9334e+06
EOG,1291732200,47.775,48.035,46.215,46.355,4.7572e+06
EOG,1291818600,46.585,46.765,45.705,46.1,2.9886e+06
EOG,1291905000,46.175,46.705,45.885,46.115,4.1152e+06
EOG,1291991400,45.965,46.215,45.365,45.375,3.956e+06
EOG,1292250600,45.75,46.25,45.295,45.35,4.5328e+06
EOG,1292337000,45.41,46.045,45.09,45.825,3.678e+06
EOG,1292423400,45.675,46.095,44.925,45.06,3.6008e+06
EOG,1292509800,45.085,45.355,44.88,45.255,2.0038e+06
EOG,1292596200,45.205,45.9,45.04,45.835,4.847e+06
EOG,1292855400,45.935,46,44.94,45.73,4.067e+06
EOG,1292941800,45.865,46.225,45.545,45.825,1.7e+06
EOG,1293028200,45.955,46.285,45.73,46.1,1.7668e+06
EOG,1293114600,45.295,46.03,45.155,45.725,4.6858e+06
EOG,1293460200,45.625,45.715,44.765,45.06,2.7158e+06
EOG,1293546600,45.255,45.325,44.96,44.99,2.6962e+06
EOG,1293633000,45.235,45.77,44.985,45.595,2.1102e+06
EOG,1293719400,45.61,46.03,45.435,45.875,2.3284e+06
EOG,1293805800,45.825,46.06,45.655,45.705,2.0424e+06
EOG,1294065000,46.225,46.75,46.135,46.175,3.5008e+06
EOG,1294151400,46.54,46.64,45.695,46.07,4.1254e+06
EOG,1294237800,45.63,46.495,45.42,46.165,3.4726e+06
EOG,1294324200,46.675,47.215,46.15,46.41,5.1784e+06
EOG,1294410600,46.63,47.175,46.455,47.13,4.8302e+06
EOG,1294669800,47.075,47.5,46.91,47.475,5.1496e+06
EOG,1294756200,47.72,48.435,47.39,48.365,5.8384e+06
EOG,1294842600,48.745,49.66,48.465,49.245,5.1768e+06
EOG,1294929000,49.115,49.29,48.52,48.93,3.3364e+06
EOG,1295015400,48.9,50.355,48.625,50.29,4.3612e+06
EOG,1295361000,50.415,51.605,50.165,51.44,6.0146e+06
EOG,1295447400,51.425,51.5,50.385,50.72,5.7948e+06
EOG,1295533800,49.89,50.745,49.615,50.68,4.8916e+06
EOG,1295620200,50.995,51.29,50.25,50.86,4.812e+06
EOG,1295879400,50.675,51.065,50.305,50.865,3.2846e+06
EOG,1295965800,50.79,50.79,49.47,49.935,3.9476e+06
EOG,1296052200,50.19,51.47,50.125,51.14,4.6384e+06
EOG,1296138600,50.955,52.07,50.865,51.625,5.1822e+06
EOG,1296225000,51.685,52.575,51.085,51.265,5.6588e+06
EOG,1296484200,51.37,53.29,51.37,53.195,4.616e+06
EOG,1296570600,53.36,54.135,52.925,53.69,4.528e+06
EOG,1296657000,53.505,54.145,53.17,53.62,2.9896e+06
EOG,1296743400,53.445,53.62,52.81,53.525,1.949e+06
EOG,1296829800,53.65,53.745,52.855,53.39,3.3084e+06
EOG,1297089000,53.68,54.235,52.72,52.795,3.4836e+06
EOG,1297175400,52.91,52.91,51.775,52.38,4.232e+06
EOG,1297261800,52.15,52.66,51.38,51.975,3.4082e+06
EOG,1297348200,51.735,52.345,51.545,52.12,3.6456e+06
EOG,1297434600,51.915,52.255,51.525,51.65,3.0404e+06
EOG,1297693800,51.675,53.265,51.675,52.45,4.243e+06
EOG,1297780200,52.395,53.095,51.58,51.775,4.232e+06
EOG,1297866600,52.035,52.675,51.47,51.495,4.6484e+06
EOG,1297953000,51.64,52.29,51.17,52.11,6.1264e+06
EOG,1298039400,53.42,54.9,53.405,54.445,7.6522e+06
EOG,1298385000,54.93,55.815,54.045,54.16,5.7978e+06
EOG,1298471400,54.255,57.37,54.255,57.195,8.3e+06
EOG,1298557800,57.295,57.585,54.9,55.085,7.247e+06
EOG,1298644200,55.35,56.245,55.02,55.875,3.2978e+06
EOG,1298903400,56.045,56.62,55.775,56.155,3.5002e+06
EOG,1298989800,54.75,56.095,53.935,53.965,9.073e+06
EOG,1299076200,52.925,54.475,52.19,54.345,1.55636e+07
EOG,1299162600,54.655,55.635,53.99,55.545,6.0698e+06
EOG,1299249000,55.405,55.79,54.195,54.69,4.3488e+06
EOG,1299508200,55.12,55.695,54.09,54.29,3.717e+06
EOG,1299594600,54.27,54.45,53.035,53.1,3.4932e+06
EOG,1299681000,53.07,53.815,52.6,52.9,3.4724e+06
EOG,1299767400,52.265,52.265,51.205,51.415,5.2618e+06
EOG,1299853800,51.305,53.275,51,52.825,3.7672e+06
EOG,1300109400,52.535,53.55,52.065,53.265,3.9512e+06
EOG,1300195800,51.64,53.24,51.325,52.72,4.8518e+06
EOG,1300282200,52.9,53.755,51.535,52.245,5.0722e+06
EOG,1300368600,53.385,54.58,52.935,54.34,4.2e+06
EOG,1300455000,54.88,55.225,53.52,53.965,5.9366e+06
EOG,1300714200,54.745,55.73,54.5,55.7,4.526e+06
EOG,1300800600,56.17,57.215,56.005,56.68,6.5582e+06
EOG,1300887000,56.715,57.035,56,57.035,8.0876e+06
EOG,1300973400,57.455,57.85,56.51,57.775,5.7558e+06
EOG,1301059800,57.91,59.065,57.38,58.77,5.161e+06
EOG,1301319000,58.385,59.855,58.17,59.22,6.2072e+06
EOG,1301405400,58.755,59.88,57.9,59.835,6.0654e+06
EOG,1301491800,60.15,60.72,59.18,59.595,7.2094e+06
EOG,1301578200,59.62,60.05,59.21,59.255,5.6894e+06
EOG,1301664600,59.585,59.65,58.91,59.195,8.3166e+06
EOG,1301923800,59.45,59.91,59.035,59.185,3.8276e+06
EOG,1302010200,59.02,59.37,58.315,58.46,3.8612e+06
EOG,1302096600,58.865,58.98,57.38,57.405,4.0674e+06
EOG,1302183000,57.265,57.84,56.38,57.33,4.4104e+06
EOG,1302269400,57.73,58.195,56.9,57.33,3.4388e+06
EOG,1302528600,57.28,57.49,55.93,56.335,2.872e+06
EOG,1302615000,55.765,55.765,54.08,54.615,5.5504e+06
EOG,1302701400,55.045,56.095,54.82,55.305,3.883e+06
EOG,1302787800,54.85,55.645,54.35,55.36,3.6316e+06
EOG,1302874200,55.425,55.935,54.78,55.52,3.4914e+06
EOG,1303133400,54.855,55.2,53.92,54.935,3.4558e+06
EOG,1303219800,54.955,55.195,54.245,54.735,3.066e+06
EOG,1303306200,55.665,56.005,55.225,55.91,3.6064e+06
EOG,1303392600,55.665,56.14,55.3,55.935,2.048e+06
EOG,1303738200,55.995,56.095,54.865,55.17,1.9358e+06
EOG,1303824600,55.37,55.885,54.99,55.86,2.2e+06
EOG,1303911000,56.005,56.1,54.595,55.88,2.5004e+06
EOG,1303997400,55.805,56.525,55.165,55.99,3.068e+06
EOG,1304083800,55.925,56.775,55.54,56.525,2.6312e+06
EOG,1304343000,56.74,56.9,55.235,55.47,3.705e+06
EOG,1304429400,55.345,55.35,53.615,54.075,4.1204e+06
EOG,1304515800,53.88,53.88,52.42,53.14,3.8666e+06
EOG,1304602200,52.13,52.715,50.92,52.175,6.9254e+06
EOG,1304688600,54.5,55.68,53.065,53.72,7.1926e+06
EOG,1304947800,55.115,55.95,54.75,55.66,4.7646e+06
EOG,1305034200,55.71,55.89,54.89,55.425,3.3316e+06
EOG,1305120600,55.225,55.34,53,53.345,4.347e+06
EOG,1305207000,52.73,53.455,52.065,52.76,4.4286e+06
EOG,1305293400,52.91,53.4,52.205,52.72,3.6348e+06
EOG,1305552600,52.585,53.855,52.115,52.35,3.1336e+06
EOG,1305639000,52.065,53.09,51.885,52.805,3.9408e+06
EOG,1305725400,52.945,53.735,52.75,53.31,3.8742e+06
EOG,1305811800,53.485,53.61,52.535,52.995,3.097e+06
EOG,1305898200,53.035,53.97,52.44,53.425,4.0464e+06
EOG,1306157400,52.55,52.8,51.985,52.125,3.889e+06
EOG,1306243800,52.585,53.545,52.425,53.03,4.6814e+06
EOG,1306330200,52.75,53.96,52.75,53.6,3.1904e+06
EOG,1306416600,53.35,53.75,52.695,53.615,2.3638e+06
EOG,1306503000,53.94,54.54,53.695,54.075,2.6034e+06
EOG,1306848600,55.005,55.095,53.55,54.57,3.5674e+06
EOG,1306935000,54.755,55.835,53.98,54.095,6.4348e+06
EOG,1307021400,54.205,55.855,54.205,55.455,6.241e+06
EOG,1307107800,54.675,55.895,53.9,55.28,4.4924e+06
EOG,1307367000,55.27,56.02,54.515,54.53,5.4288e+06
EOG,1307453400,54.755,55.02,54.01,54.025,4.261e+06
EOG,1307539800,54.06,55.43,54.06,54.47,3.9598e+06
EOG,1307626200,54.78,55.585,54.515,55.39,3.6804e+06
EOG,1307712600,55,55.23,53.785,53.835,3.801e+06
EOG,1307971800,53.995,54.28,51.825,52.355,5.597e+06
EOG,1308058200,53.13,53.49,52.31,52.515,5.3664e+06
EOG,1308144600,52.075,52.665,51.125,51.435,5.4242e+06
EOG,1308231000,51.28,51.775,50.625,50.805,5.5964e+06
EOG,1308317400,51.205,51.495,50.355,51.125,5.916e+06
EOG,1308576600,50.755,50.955,50.11,50.45,5.0404e+06
EOG,1308663000,50.755,51.59,50.615,51.095,4.0968e+06
EOG,1308749400,50.865,51.7,50.61,50.67,5.5318e+06
EOG,1308835800,49.53,50.12,48.31,50.08,5.6828e+06
EOG,1308922200,50.04,50.205,49.035,49.135,3.9292e+06
EOG,1309181400,48.7,50.215,48.605,50.165,5.8124e+06
EOG,1309267800,50.3,51.395,49.995,51.205,3.73e+06
EOG,1309354200,51.315,52.08,50.795,51.55,3.6812e+06
EOG,1309440600,51.775,52.415,51.62,52.275,3.7766e+06
EOG,1309527000,52.185,52.28,51.195,51.54,6.685e+06
EOG,1309872600,51.655,52.495,51.475,51.62,2.9698e+06
EOG,1309959000,51.52,51.66,50.875,51.135,2.5438e+06
EOG,1310045400,51.835,52.005,51.22,51.775,3.8022e+06
EOG,1310131800,50.99,51.31,50.58,50.96,3.4062e+06
EOG,1310391000,50.22,50.22,49.285,49.505,3.1452e+06
EOG,1310477400,49.42,50.055,49.265,49.445,3.9658e+06
EOG,1310563800,49.755,50.545,49.29,49.47,3.888e+06
EOG,1310650200,49.73,49.79,48.2,48.355,5.4378e+06
EOG,1310736600,50,51.06,49.87,50.595,1.35024e+07
EOG,1310995800,50.695,51.295,50.24,50.76,5.3384e+06
EOG,1311082200,51,52.14,51,52.015,4.7302e+06
EOG,1311168600,52.405,52.405,51.765,51.905,4.1926e+06
EOG,1311255000,52.32,52.95,52.045,52.78,3.8786e+06
EOG,1311341400,52.775,53.3,52.505,53.285,3.2884e+06
EOG,1311600600,52.6,53.73,52.4,53.105,3.7984e+06
EOG,1311687000,53.105,53.94,52.31,53.285,4.2352e+06
EOG,1311773400,53,53.01,51.985,52.035,4.082e+06
EOG,1311859800,52.02,52.665,51.535,51.715,4.7368e+06
EOG,1311946200,51.09,51.68,50.75,51,6.3888e+06
EOG,1312205400,51.945,52.16,50.245,50.81,3.6608e+06
EOG,1312291800,50.43,51.185,49.54,49.605,4.1766e+06
EOG,1312378200,49.635,49.665,47.785,48.99,6.1108e+06
EOG,1312464600,48.255,48.255,45.725,46.065,8.7688e+06
EOG,1312551000,49.135,50.61,46.7,47.96,1.80314e+07
EOG,1312810200,46.8,46.905,43.53,44.3,1.13714e+07
EOG,1312896600,45.14,45.95,43.05,45.43,1.49776e+07
EOG,1312983000,45.255,45.54,43.34,43.495,1.11452e+07
EOG,1313069400,43.98,47.14,43.475,46.57,9.0012e+06
EOG,1313155800,48.39,48.915,46.57,47.075,7.1896e+06
EOG,1313415000,47.595,48.24,47.315,48.145,5.036e+06
EOG,1313501400,47.5,47.85,46.555,47.29,5.7948e+06
EOG,1313587800,47.635,48.525,46.51,47,4.0946e+06
EOG,1313674200,45.83,45.83,43.425,43.815,7.3684e+06
EOG,1313760600,43.31,44.885,43.25,43.785,6.5136e+06
EOG,1314019800,44.95,45.25,42.925,43.175,6.2048e+06
EOG,1314106200,43.16,44.5,42.79,44.485,7.2072e+06
EOG,1314192600,44.175,45.015,43.92,44.96,4.626e+06
EOG,1314279000,45.31,45.615,43.765,44.13,5.5562e+06
EOG,1314365400,43.87,45.08,43,44.925,4.5558e+06
EOG,1314624600,45.61,45.84,44.905,45.775,4.2006e+06
EOG,1314711000,45.55,46.375,44.875,46.1,3.3286e+06
EOG,1314797400,46.49,47.085,45.72,46.295,5.4936e+06
EOG,1314883800,46.66,47.08,45.645,45.71,3.3928e+06
EOG,1314970200,44.675,45.095,43.91,44.175,4.9196e+06
EOG,1315315800,42.87,43.555,42.465,43.48,5.1232e+06
EOG,1315402200,44.24,45.425,44.05,45.335,3.595e+06
EOG,1315488600,44.81,45.985,44.385,44.625,4.8546e+06
EOG,1315575000,43.655,44.14,42.455,42.66,5.2512e+06
EOG,1315834200,42.265,43.08,41.96,43.055,4.4318e+06
EOG,1315920600,43.215,43.71,42.66,43.375,3.1896e+06
EOG,1316007000,42.93,44.43,42.55,43.875,4.4776e+06
EOG,1316093400,44.435,45.2,44.06,45.2,3.907e+06
EOG,1316179800,45.565,45.625,44.625,45.08,5.1168e+06
EOG,1316439000,44.06,44.31,42.98,43.88,3.672e+06
EOG,1316525400,44.105,44.775,43.435,43.56,3.7616e+06
EOG,1316611800,43.485,44.155,41.705,41.715,4.4912e+06
EOG,1316698200,40.415,40.465,37.565,38.375,1.0625e+07
EOG,1316784600,37.68,38.585,36.675,36.86,7.7078e+06
EOG,1317043800,37.63,38.395,36.57,38.34,7.592e+06
EOG,1317130200,39.325,40.26,39.02,39.305,6.2918e+06
EOG,1317216600,39.365,39.4,37.07,37.145,4.861e+06
EOG,1317303000,38.015,38.18,35.94,36.89,6.8666e+06
EOG,1317389400,35.695,36.38,34.775,35.505,7.6778e+06
EOG,1317648600,35.07,35.12,33.895,34.205,9.8326e+06
EOG,1317735000,33.67,37.015,33.405,36.83,1.21974e+07
EOG,1317821400,36.855,38.475,36.61,38.4,7.5134e+06
EOG,1317907800,38.185,39.455,37.755,39.27,5.83e+06
EOG,1317994200,39.525,39.615,37.365,37.45,6.5206e+06
EOG,1318253400,38.42,39.725,38.37,39.705,5.0938e+06
EOG,1318339800,39.32,40.245,38.985,40.07,6.0926e+06
EOG,1318426200,40.4,41.345,40.15,40.475,4.5412e+06
EOG,1318512600,40.01,40.265,38.82,40.11,4.819e+06
EOG,1318599000,41.045,42.035,40.855,41.99,4.6306e+06
EOG,1318858200,41.65,42.05,40.56,40.705,3.8616e+06
EOG,1318944600,40.76,43.305,40.115,43.01,7.4362e+06
EOG,1319031000,42.83,44.59,42.755,43.935,8.4682e+06
EOG,1319117400,43.755,44.02,42.545,43.67,6.2934e+06
EOG,1319203800,44.48,45.54,44.105,45.31,5.5448e+06
EOG,1319463000,45.555,45.905,45.12,45.54,6.1536e+06
EOG,1319549400,45.54,45.54,43.625,43.76,6.0342e+06
EOG,1319635800,44.49,44.635,43.17,43.71,7.7156e+06
EOG,1319722200,45.5,47,44.915,46.42,7.4092e+06
EOG,1319808600,45.82,47.63,45.815,47.59,6.09e+06
EOG,1320067800,46.695,46.75,44.65,44.715,5.4552e+06
EOG,1320154200,42.995,43.5,41.94,42.94,7.5206e+06
EOG,1320240600,45.36,48.91,45.065,48.02,1.69952e+07
EOG,1320327000,48.79,50.305,48.095,50.015,9.1328e+06
EOG,1320413400,49.42,51.26,49.14,50.84,7.4016e+06
EOG,1320676200,50.74,51.2,49.865,50.585,5.5578e+06
EOG,1320762600,50.875,51.12,49.725,50.955,4.9956e+06
EOG,1320849000,49.72,50.33,49,49.115,5.81e+06
EOG,1320935400,49.705,50.385,49.215,50.02,4.6884e+06
EOG,1321021800,50.605,52.025,50.585,52.005,4.88e+06
EOG,1321281000,51.47,52.235,50.65,51.885,5.5728e+06
EOG,1321367400,51.665,51.96,51,51.18,3.8454e+06
EOG,1321453800,50.97,51.705,50.27,50.345,8.4566e+06
EOG,1321540200,50.2,50.65,48.08,48.51,5.0144e+06
EOG,1321626600,49.185,49.93,48.015,48.92,4.4632e+06
EOG,1321885800,47.855,48.325,47.025,48.005,2.933e+06
EOG,1321972200,47.79,48.155,46.82,47.49,3.4988e+06
EOG,1322058600,46.805,46.945,45.695,45.805,4.856e+06
EOG,1322231400,45.425,46.42,45.385,45.435,1.2234e+06
EOG,1322490600,46.995,48.395,46.93,47.795,3.8898e+06
EOG,1322577000,48.135,49.46,48.005,49.115,5.0184e+06
EOG,1322663400,51.02,52.205,51.02,51.87,7.2824e+06
EOG,1322749800,51.815,52.495,50.845,51.265,3.8702e+06
EOG,1322836200,51.895,52,51.06,51.28,3.256e+06
EOG,1323095400,51.995,52.43,50.615,51.055,5.158e+06
EOG,1323181800,51.23,53.1,51.04,52.445,4.2722e+06
EOG,1323268200,52.055,52.145,50.83,51.515,4.1658e+06
EOG,1323354600,51.27,52.29,50.065,50.315,4.9646e+06
EOG,1323441000,50.235,52.21,50.235,51.875,5.6924e+06
EOG,1323700200,51.045,51.13,49.575,50.525,4.36e+06
EOG,1323786600,50.88,51.565,48.58,49.25,5.826e+06
EOG,1323873000,48.49,48.53,46.555,46.585,9.2682e+06
EOG,1323959400,47.28,47.78,46.505,47.22,6.036e+06
EOG,1324045800,47.715,48.95,47.37,48.84,7.302e+06
EOG,1324305000,48.755,48.865,47.6,47.785,3.7724e+06
EOG,1324391400,48.92,49.595,48.675,48.985,4.7008e+06
EOG,1324477800,49.125,49.345,48.26,49.09,4.8806e+06
EOG,1324564200,49.11,49.32,48.97,49.165,5.8664e+06
EOG,1324650600,49.24,49.565,48.615,49.135,3.1136e+06
EOG,1324996200,49.195,49.87,49.05,49.505,3.2382e+06
EOG,1325082600,49.615,49.745,48.06,48.22,3.0134e+06
EOG,1325169000,48.185,49.09,48.185,49.025,2.6866e+06
EOG,1325255400,49.025,49.55,48.895,49.255,2.5698e+06
EOG,1325601000,50.305,51.065,50.2,50.725,5.5974e+06
EOG,1325687400,50.73,50.995,50.31,50.795,4.909e+06
EOG,1325773800,50.575,51.255,49.91,51.075,5.075e+06
EOG,1325860200,51.125,51.885,51,51.215,4.493e+06
EOG,1326119400,51.235,51.53,50.75,51.085,3.5256e+06
EOG,1326205800,52.695,53.635,52.45,52.76,6.24e+06
EOG,1326292200,52.39,52.745,51.475,51.585,4.476e+06
EOG,1326378600,51.815,52.35,51.27,51.94,4.6584e+06
EOG,1326465000,51.335,51.725,50.715,51.52,3.4828e+06
EOG,1326810600,52.35,52.555,51.33,51.86,3.0536e+06
EOG,1326897000,51.81,52.91,51.405,52.685,3.217e+06
EOG,1326983400,52.845,53.265,52.34,52.54,5.4396e+06
EOG,1327069800,52.435,52.485,51.22,51.58,5.5678e+06
EOG,1327329000,52.415,53.315,52.185,52.8,5.463e+06
EOG,1327415400,52.315,52.445,51.75,52.275,3.8672e+06
EOG,1327501800,52.14,53.6,51.51,53.405,4.3304e+06
EOG,1327588200,53.645,53.75,52.115,52.375,4.5476e+06
EOG,1327674600,52.165,52.63,51.745,52.06,3.1978e+06
EOG,1327933800,51.505,52.715,51.085,52.655,4.3456e+06
EOG,1328020200,52.785,53.135,52.35,53.07,5.5778e+06
EOG,1328106600,53.475,53.49,52.34,52.95,6.6572e+06
EOG,1328193000,52.825,54.065,52.48,53.24,4.2814e+06
EOG,1328279400,54.015,55.06,53.55,54.545,4.4298e+06
EOG,1328538600,54.735,55.275,54.385,55.03,6.1384e+06
EOG,1328625000,55,55.75,54.525,55.565,3.6588e+06
EOG,1328711400,55.72,55.845,54.775,55.71,3.0844e+06
EOG,1328797800,55.525,56.83,55.44,56.225,3.9646e+06
EOG,1328884200,55.385,55.915,55.08,55.915,3.6868e+06
EOG,1329143400,56.27,56.825,56.09,56.69,3.9736e+06
EOG,1329229800,56.58,56.91,56.185,56.875,4.8358e+06
EOG,1329316200,57.25,57.95,56.675,57.42,5.9806e+06
EOG,1329402600,57.495,59.405,57.265,58.81,6.6098e+06
EOG,1329489000,59.535,59.985,56.745,57.175,1.23388e+07
EOG,1329834600,57.99,58.495,57.495,57.825,6.8286e+06
EOG,1329921000,57.98,58.755,57.785,57.83,5.7268e+06
EOG,1330007400,57.925,58.3,57.25,58.25,4.004e+06
EOG,1330093800,58.33,59.04,58.095,58.775,3.3518e+06
EOG,1330353000,58.665,58.9,57.81,57.81,4.5826e+06
EOG,1330439400,57.96,58.6,57.75,58.305,4.872e+06
EOG,1330525800,58.365,58.6,56.69,56.93,6.4446e+06
EOG,1330612200,57.125,58.505,57.125,58.455,5.1432e+06
EOG,1330698600,58.2,58.39,56.54,56.95,4.6992e+06
EOG,1330957800,56.755,56.81,55.68,56.6,3.1626e+06
EOG,1331044200,55.56,56.405,55.11,56.36,5.2578e+06
EOG,1331130600,56.36,56.835,56.015,56.57,3.8954e+06
EOG,1331217000,57.36,57.66,56.66,57.205,3.13e+06
EOG,1331303400,57.25,57.875,57.03,57.49,2.7134e+06
EOG,1331559000,57.62,57.62,56.26,56.865,2.8906e+06
EOG,1331645400,56.925,58.47,56.51,58.425,5.2064e+06
EOG,1331731800,58.405,58.475,57.04,57.34,3.3954e+06
EOG,1331818200,57.42,58.135,57.025,57.815,3.9072e+06
EOG,1331904600,58.18,58.935,57.895,58.39,5.4746e+06
EOG,1332163800,58.325,58.985,58.055,58.695,3.3862e+06
EOG,1332250200,58.07,58.07,57.075,57.355,3.4496e+06
EOG,1332336600,57.355,57.55,56.535,56.905,3.3034e+06
EOG,1332423000,56.18,56.57,54.93,55.175,4.5622e+06
EOG,1332509400,55.24,56.325,55.08,55.865,4.599e+06
EOG,1332768600,56.38,56.6,55.805,56.08,2.7414e+06
EOG,1332855000,56.23,56.265,55.46,55.64,2.9208e+06
EOG,1332941400,55.37,55.475,54.25,54.815,3.4956e+06
EOG,1333027800,54.245,54.63,53.575,54.51,2.8852e+06
EOG,1333114200,54.74,55.74,54.38,55.55,3.5412e+06
EOG,1333373400,55.495,57.165,55.16,56.675,3.8992e+06
EOG,1333459800,56.315,56.85,56.085,56.78,4.6474e+06
EOG,1333546200,56.03,56.195,54.85,55.26,3.1276e+06
EOG,1333632600,55.06,55.735,54.425,54.59,4.6298e+06
EOG,1333978200,53.475,54.015,53.305,53.72,5.4452e+06
EOG,1334064600,53.72,53.86,51.905,52,6.6042e+06
EOG,1334151000,52.59,52.76,51.255,51.475,6.0172e+06
EOG,1334237400,51.5,52.825,51.47,52.61,6.3452e+06
EOG,1334323800,52.365,52.65,51.55,51.665,3.0186e+06
EOG,1334583000,51.93,52.56,50.915,51.385,3.074e+06
EOG,1334669400,51.96,52.655,51.765,52.4,4.1084e+06
EOG,1334755800,52.195,52.49,51.785,52.085,3.8134e+06
EOG,1334842200,52.15,52.645,51.655,51.98,3.1216e+06
EOG,1334928600,52.445,52.75,51.395,51.515,3.3766e+06
EOG,1335187800,50.305,51.885,50.295,51.8,3.7716e+06
EOG,1335274200,52.055,52.465,51.7,52.225,4.5124e+06
EOG,1335360600,52.69,53.255,52.295,53.215,5.7182e+06
EOG,1335447000,53.21,54.44,53.005,54.26,4.6864e+06
EOG,1335533400,54.505,54.62,54.05,54.51,4.275e+06
EOG,1335792600,54.44,54.97,53.92,54.905,3.0008e+06
EOG,1335879000,55.15,56.12,54.9,55.615,3.5528e+06
EOG,1335965400,54.95,54.95,54.11,54.64,4.1456e+06
EOG,1336051800,54.5,54.97,53.61,53.855,3.8822e+06
EOG,1336138200,53.2,53.6,52.19,52.645,4.3306e+06
EOG,1336397400,52.235,52.925,51.645,52.385,3.265e+06
EOG,1336483800,51.81,52.095,50.205,51.995,4.3396e+06
EOG,1336570200,51.905,52.84,50.38,52.55,7.5354e+06
EOG,1336656600,53.37,53.665,52.755,53.255,5.3346e+06
EOG,1336743000,52.74,53.275,51.955,52.115,4.4698e+06
EOG,1337002200,51.45,51.45,50.44,50.52,3.6674e+06
EOG,1337088600,50.495,50.85,49.32,49.605,3.8368e+06
EOG,1337175000,49.83,50.8,49.275,49.475,3.9814e+06
EOG,1337261400,49.455,49.66,48.58,48.67,3.8744e+06
EOG,1337347800,48.945,49.31,47.89,48.155,4.4432e+06
EOG,1337607000,48.665,50.13,48.645,50.1,4.474e+06
EOG,1337693400,50.795,51.735,50.235,50.665,5.602e+06
EOG,1337779800,50.145,50.895,48.89,50.85,5.4398e+06
EOG,1337866200,51,51.195,49.57,50.395,3.8062e+06
EOG,1337952600,50.28,51.215,50.28,50.875,3.5596e+06
EOG,1338298200,52.225,52.66,51.58,52.43,4.6526e+06
EOG,1338384600,51.67,51.67,49.95,50.495,5.5606e+06
EOG,1338471000,50.375,50.425,48.2,49.65,7.3506e+06
EOG,1338557400,47.94,48.07,45.67,45.835,1.3415e+07
EOG,1338816600,45.98,46.085,44.425,45.2,1.00726e+07
EOG,1338903000,44.805,46.115,44.785,45.935,6.586e+06
EOG,1338989400,46.52,47.48,46.415,47.46,5.499e+06
EOG,1339075800,48.29,48.7,47.205,47.725,6.559e+06
EOG,1339162200,46.91,47.065,45.88,46.94,4.7176e+06
EOG,1339421400,47.675,48.05,45.9,45.965,4.1682e+06
EOG,1339507800,46.305,47.185,46.115,47.085,3.8568e+06
EOG,1339594200,46.895,47.615,46.01,46.35,4.5246e+06
EOG,1339680600,46.45,47.475,46.11,47.23,5.0992e+06
EOG,1339767000,47.445,48.39,46.955,48.32,5.7986e+06
EOG,1340026200,48.015,48.085,47.18,47.365,4.4926e+06
EOG,1340112600,47.845,48.16,47.29,47.975,4.5022e+06
EOG,1340199000,48.07,48.385,46.07,46.47,6.199e+06
EOG,1340285400,46.425,46.635,43.17,43.24,1.1919e+07
EOG,1340371800,43.845,43.985,42.935,43.81,6.6304e+06
EOG,1340631000,42.845,42.94,41.83,42.45,6.1792e+06
EOG,1340717400,42.46,42.78,41.24,41.98,7.4198e+06
EOG,1340803800,42.125,43.085,42.04,42.865,1.00738e+07
EOG,1340890200,42.6,42.92,41.945,42.58,8.0442e+06
EOG,1340976600,43.975,45.13,43.785,45.055,9.9414e+06
EOG,1341235800,44.77,44.97,43.77,44.47,3.4314e+06
EOG,1341322200,45,47.5,45,47.445,5.6772e+06
EOG,1341495000,47.04,47.25,45.88,46,4.1016e+06
EOG,1341581400,44.885,45.675,44.535,45.32,3.4242e+06
EOG,1341840600,45.205,46.435,45.095,45.745,4.715e+06
EOG,1341927000,45.735,45.98,44.375,44.675,4.7042e+06
EOG,1342013400,44.855,46.31,44.855,45.94,5.3862e+06
EOG,1342099800,45.08,45.92,44.545,45.525,5.8696e+06
EOG,1342186200,45.685,46.54,45.6,46.465,3.6904e+06
EOG,1342445400,46.215,46.92,45.645,46.62,3.599e+06
EOG,1342531800,47.09,47.715,46.165,47.62,5.095e+06
EOG,1342618200,47.425,48.715,47.275,48.35,5.1174e+06
EOG,1342704600,48.595,49.315,48.385,49.125,6.1498e+06
EOG,1342791000,48.735,49.645,48.125,49.615,5.4962e+06
EOG,1343050200,48.315,48.74,47.115,48.6,6.4704e+06
EOG,1343136600,48.645,48.95,47.205,47.75,3.716e+06
EOG,1343223000,48.245,48.365,47.105,47.845,3.0244e+06
EOG,1343309400,48.67,49.29,48.13,48.71,4.0418e+06
EOG,1343395800,48.985,50.735,48.725,50.505,4.7902e+06
EOG,1343655000,50.34,50.81,49.215,49.78,3.3784e+06
EOG,1343741400,49.71,49.95,48.975,49.005,3.2378e+06
EOG,1343827800,49.465,50.595,48.52,50.225,4.4926e+06
EOG,1343914200,49.065,49.565,47.64,48.06,4.9674e+06
EOG,1344000600,51.53,54.375,51.07,53.375,1.05174e+07
EOG,1344259800,53.485,53.665,52.755,52.87,5.0402e+06
EOG,1344346200,52.865,54.75,52.785,54.37,4.9762e+06
EOG,1344432600,53.71,54.53,53.705,53.95,3.7984e+06
EOG,1344519000,53.765,55.4,53.715,54.705,4.1508e+06
EOG,1344605400,54.055,55.18,54,54.995,3.0022e+06
EOG,1344864600,55.45,55.45,54.41,54.65,2.6632e+06
EOG,1344951000,55.13,55.555,54.855,55.175,3.8866e+06
EOG,1345037400,54.84,55.365,54.485,54.91,2.9892e+06
EOG,1345123800,54.88,55.54,54.7,55.495,3.0372e+06
EOG,1345210200,55.25,55.68,55.05,55.595,2.6366e+06
EOG,1345469400,55.755,55.78,54.585,54.785,2.5842e+06
EOG,1345555800,55.14,55.425,54.135,54.385,3.0738e+06
EOG,1345642200,54.275,54.6,53.55,54.455,3.1054e+06
EOG,1345728600,54.375,54.59,53.22,53.505,2.8646e+06
EOG,1345815000,53.48,54.59,53.285,54.455,4.3704e+06
EOG,1346074200,54.49,54.98,54.08,54.585,2.8162e+06
EOG,1346160600,54.62,54.96,54.02,54.41,3.5146e+06
EOG,1346247000,54.44,54.49,53.735,54.025,2.5802e+06
EOG,1346333400,53.725,53.725,52.725,52.945,2.5628e+06
EOG,1346419800,53.495,54.305,53.05,54.15,3.4202e+06
EOG,1346765400,54.13,54.875,53.595,54.66,4.1442e+06
EOG,1346851800,54.54,54.755,54.225,54.27,3.1742e+06
EOG,1346938200,54.91,56.605,54.8,56.205,4.1608e+06
EOG,1347024600,55.475,56.64,55.365,56.44,4.7044e+06
EOG,1347283800,56.5,57.235,56.045,56.2,3.535e+06
EOG,1347370200,56.405,56.73,55.965,56.215,3.3326e+06
EOG,1347456600,56.425,56.97,55.795,56.49,3.305e+06
EOG,1347543000,56.715,58.06,55.9,57.59,3.997e+06
EOG,1347629400,57.87,59.845,57.87,58.81,3.8566e+06
EOG,1347888600,58.705,59.115,57.94,58.2,2.9222e+06
EOG,1347975000,58.115,58.41,57.285,57.94,2.2824e+06
EOG,1348061400,57.83,57.895,56.75,56.785,3.288e+06
EOG,1348147800,56.455,57.04,55.745,56.775,4.148e+06
EOG,1348234200,57.285,57.37,56.625,56.975,4.0152e+06
EOG,1348493400,56.3,56.87,56.08,56.605,2.4926e+06
EOG,1348579800,56.85,57.205,56.13,56.21,3.0684e+06
EOG,1348666200,55.935,56.04,55.2,55.3,2.7324e+06
EOG,1348752600,55.88,56.885,55.75,56.6,1.9538e+06
EOG,1348839000,56.3,56.5,55.57,56.025,2.2954e+06
EOG,1349098200,56.495,57.345,56.455,57.095,3.422e+06
EOG,1349184600,57.395,57.64,56.935,57.57,3.6172e+06
EOG,1349271000,57.415,57.5,55.4,55.54,4.238e+06
EOG,1349357400,55.965,56.125,55.325,55.71,4.0412e+06
EOG,1349443800,55.755,56.2,54.75,54.955,3.2958e+06
EOG,1349703000,54.43,54.985,54.32,54.91,2.263e+06
EOG,1349789400,54.955,55.9,54.64,55.525,2.6388e+06
EOG,1349875800,55.425,55.675,54.595,54.75,2.6584e+06
EOG,1349962200,55.205,55.635,54.8,54.915,1.995e+06
EOG,1350048600,54.985,55.155,53.935,54.39,2.5582e+06
EOG,1350307800,54.33,55.29,53.88,55.125,2.979e+06
EOG,1350394200,55.855,56.945,55.755,56.87,3.2862e+06
EOG,1350480600,57.27,57.825,56.785,57.62,2.8742e+06
EOG,1350567000,57.27,57.54,56.87,57.375,2.1716e+06
EOG,1350653400,57.265,57.725,56.285,56.535,3.024e+06
EOG,1350912600,56.39,56.47,55.215,56.055,3.7174e+06
EOG,1350999000,55.035,55.45,54.515,55.08,4.001e+06
EOG,1351085400,55.44,55.77,54.885,55.35,3.7742e+06
EOG,1351171800,56.025,56.22,55.455,56.21,2.3016e+06
EOG,1351258200,56.145,57.25,56.005,57.045,4.4636e+06
EOG,1351690200,57.125,58.285,57.12,58.245,4.6018e+06
EOG,1351776600,58.245,59.3,58.02,58.44,3.662e+06
EOG,1351863000,58.885,59.255,57.345,57.6,5.0068e+06
EOG,1352125800,57.275,58.535,57.275,58.405,4.379e+06
EOG,1352212200,61.695,62.245,60.65,60.99,8.5484e+06
EOG,1352298600,60,60.475,59.665,60,6.0318e+06
EOG,1352385000,59.935,60.385,57.855,57.885,4.5136e+06
EOG,1352471400,57.815,58.385,57.225,57.26,4.9846e+06
EOG,1352730600,57.545,57.8,56.72,57.38,2.1776e+06
EOG,1352817000,56.95,58.57,56.845,57.64,3.8848e+06
EOG,1352903400,57.69,57.95,56.5,56.68,3.1e+06
EOG,1352989800,56.72,58.275,56.66,58.08,4.758e+06
EOG,1353076200,58.625,58.73,57.395,58.335,5.2578e+06
EOG,1353335400,59.105,60.4,58.91,59.305,3.986e+06
EOG,1353421800,59.195,59.27,58.275,58.7,2.6294e+06
EOG,1353508200,58.895,59.27,58.7,59.07,2.2302e+06
EOG,1353681000,59.25,59.575,58.825,59.495,1.1688e+06
EOG,1353940200,58.725,58.915,57.8,58.325,2.5024e+06
EOG,1354026600,57.77,58.03,57.22,57.54,5.1184e+06
EOG,1354113000,57.045,58.295,56.36,58.175,3.2232e+06
EOG,1354199400,58.8,59.21,58.405,58.82,2.838e+06
EOG,1354285800,58.7,59.205,58.525,58.81,2.8972e+06
EOG,1354545000,59.12,59.55,58.565,58.62,2.5724e+06
EOG,1354631400,58.47,59,58.345,58.59,1.8014e+06
EOG,1354717800,58.75,59.775,58.67,59.36,3.4412e+06
EOG,1354804200,59.145,59.375,58.5,59.18,2.4166e+06
EOG,1354890600,59.355,59.355,58.465,58.675,2.6704e+06
EOG,1355149800,58.6,58.93,58.285,58.865,2.1324e+06
EOG,1355236200,59.16,59.75,58.985,59.365,2.716e+06
EOG,1355322600,59.6,60.685,59.36,60.37,3.6226e+06
EOG,1355409000,60.155,60.325,59.175,59.255,3.7892e+06
EOG,1355495400,59.19,59.9,59.02,59.495,2.4018e+06
EOG,1355754600,59.695,60.49,59.39,60.485,2.4996e+06
EOG,1355841000,60.54,62.125,60.5,61.96,3.6962e+06
EOG,1355927400,61.8,62.01,61.22,61.225,3.0388e+06
EOG,1356013800,61.395,62.25,61.2,62.185,3.0536e+06
EOG,1356100200,61.21,62.08,60.94,61.785,4.6664e+06
EOG,1356359400,61.555,62.1,61.34,61.385,1.5608e+06
EOG,1356532200,61.57,61.575,60.61,60.775,2.0964e+06
EOG,1356618600,60.99,61.075,59.78,60.815,3.1966e+06
EOG,1356705000,60.28,60.465,59.25,59.305,2.1962e+06
EOG,1356964200,59.055,60.49,59,60.395,3.5618e+06
EOG,1357137000,61.7,61.84,60.72,61.84,3.6652e+06
EOG,1357223400,61.745,62.745,61.235,62.09,2.9284e+06
EOG,1357309800,62.115,63.125,61.975,62.9,2.5186e+06
EOG,1357569000,62.605,63.05,62.075,62.995,2.8578e+06
EOG,1357655400,62.875,62.995,61.59,62.07,3.1224e+06
EOG,1357741800,62.18,62.585,61.845,62.315,1.7552e+06
EOG,1357828200,62.7,63.065,62.28,63.05,2.277e+06
EOG,1357914600,63.03,63.225,62.5,62.815,2.2646e+06
EOG,1358173800,62.825,63.14,62.115,62.33,2.0468e+06
EOG,1358260200,62.005,62.75,61.875,62.55,3.347e+06
EOG,1358346600,62.415,62.75,62.195,62.685,3.0098e+06
EOG,1358433000,63,63.275,62.445,63.015,3.449e+06
EOG,1358519400,63.17,63.54,62.61,63.395,3.5328e+06
EOG,1358865000,63.475,63.67,62.45,63.25,3.8314e+06
EOG,1358951400,63.08,63.295,62.25,62.375,2.282e+06
EOG,1359037800,62.45,63.2,62.395,62.495,2.724e+06
EOG,1359124200,62.685,63.27,62.27,62.635,2.365e+06
EOG,1359383400,62.905,62.905,61.775,62.1,2.7184e+06
EOG,1359469800,62.33,63.595,62.005,63.47,2.8214e+06
EOG,1359556200,63.585,64.715,63.085,63.16,3.195e+06
EOG,1359642600,62.75,62.985,62.25,62.49,3.528e+06
EOG,1359729000,63.32,64.395,62.495,64.3,3.367e+06
EOG,1359988200,63.835,63.895,63.3,63.645,2.6812e+06
EOG,1360074600,64.325,64.635,63.95,64.41,2.0444e+06
EOG,1360161000,63.865,64.96,63.765,64.835,1.7294e+06
EOG,1360247400,64.86,65.055,64.025,64.885,2.3158e+06
EOG,1360333800,65.07,66.695,65.07,66.64,3.6022e+06
EOG,1360593000,66.645,66.84,66.06,66.67,3.3962e+06
EOG,1360679400,66.75,67.345,66.4,67.05,3.4624e+06
EOG,1360765800,67.05,67.2,66.35,66.8,3.178e+06
EOG,1360852200,69.035,69.1,66.54,66.665,5.912e+06
EOG,1360938600,66.63,67,63.89,64.595,6.3432e+06
EOG,1361284200,65.28,65.79,65.02,65.7,3.9354e+06
EOG,1361370600,65.715,65.87,63.66,63.695,4.9436e+06
EOG,1361457000,63.245,63.53,61.775,62.02,5.8282e+06
EOG,1361543400,62.5,62.92,61.845,62.67,4.5462e+06
EOG,1361802600,62.835,63.48,60.825,60.885,5.1906e+06
EOG,1361889000,61.185,61.925,60.38,61.75,3.9286e+06
EOG,1361975400,61.555,63.565,61.385,63.46,4.719e+06
EOG,1362061800,63.22,63.98,62.8,62.855,4.3262e+06
EOG,1362148200,62.32,62.675,61.115,61.5,5.727e+06
EOG,1362407400,61.39,61.44,60.5,60.895,3.7522e+06
EOG,1362493800,61.54,62.525,61.21,62.35,3.9156e+06
EOG,1362580200,62.59,62.975,62.16,62.8,4.0888e+06
EOG,1362666600,62.875,64.115,62.685,63.78,2.4426e+06
EOG,1362753000,64.095,64.46,63.745,64.34,2.4492e+06
EOG,1363008600,64.165,64.685,63.705,64.33,2.084e+06
EOG,1363095000,64.75,65.2,64.56,65.04,2.5856e+06
EOG,1363181400,65,65.59,64.745,64.94,2.6348e+06
EOG,1363267800,65.245,66.005,65.135,65.915,2.8478e+06
EOG,1363354200,65.735,66.42,65.205,65.21,4.9722e+06
EOG,1363613400,64.455,65.21,64.16,64.465,2.7734e+06
EOG,1363699800,64.55,64.76,63.355,63.635,2.5136e+06
EOG,1363786200,64.18,64.4,63.085,63.12,3.7848e+06
EOG,1363872600,62.635,63.425,61.925,61.95,4.0302e+06
EOG,1363959000,62.22,62.535,61.81,62.49,2.7904e+06
EOG,1364218200,62.885,63.4,61.515,61.96,3.087e+06
EOG,1364304600,62.24,64.695,62.185,64.45,4.8652e+06
EOG,1364391000,63.945,64.335,63.095,64.1,3.7138e+06
EOG,1364477400,64.085,64.575,63.715,64.035,3.0394e+06
EOG,1364823000,64.035,64.415,63.315,64.255,2.2574e+06
EOG,1364909400,64.4,65.025,64.02,64.525,3.1052e+06
EOG,1364995800,64.525,64.71,62.875,63.05,3.3354e+06
EOG,1365082200,63.035,63.035,61.315,61.43,4.7458e+06
EOG,1365168600,60.5,62.435,60.38,62.375,4.2564e+06
EOG,1365427800,62.445,63.61,62.265,63.445,2.5252e+06
EOG,1365514200,63.535,64.605,63.1,64.125,2.2894e+06
EOG,1365600600,64.28,65.1,64.24,64.31,2.723e+06
EOG,1365687000,64.505,64.83,63.86,64.13,2.9568e+06
EOG,1365773400,63.65,63.9,62.005,62.065,4.0506e+06
EOG,1366032600,61.18,61.185,58.065,58.095,5.7754e+06
EOG,1366119000,58.915,59.82,57.91,59.575,4.537e+06
EOG,1366205400,58.705,58.93,56.73,57.41,6.1312e+06
EOG,1366291800,57.695,57.98,56.025,57.655,6.9038e+06
EOG,1366378200,58.08,58.14,56.465,56.72,4.9542e+06
EOG,1366637400,56.975,58.41,56.755,58.2,4.329e+06
EOG,1366723800,58.45,58.69,57.635,58.5,4.4356e+06
EOG,1366810200,58.52,60.225,58.5,59.965,3.838e+06
EOG,1366896600,60.08,61.765,59.68,60.93,4.523e+06
EOG,1366983000,60.85,60.955,59.5,59.56,4.6762e+06
EOG,1367242200,60.25,61.36,59.94,60.965,2.3268e+06
EOG,1367328600,60.9,61.37,60.295,60.58,3.5678e+06
